21235;869568;
27617;1439708;
27583;1441022;
27570;1440827;
27543;1440674;
27536;1440565;
27532;1440465;
27522;1440384;
27520;1440327;
27508;1440260;
27512;1440210;
27513;1440177;
27494;1440160;
27501;1440164;
27498;1440174;
27501;1440207;
27500;1440262;
27527;1440316;
27519;1440376;
27532;1440452;
27535;1440505;
27552;1440569;
27552;1440602;
27549;1440657;
27554;1440691;
27568;1440718;
27565;1440743;
27564;1440759;
27555;1440778;
27566;1440782;
27559;1440783;
27555;1440787;
27549;1440793;
27557;1440797;
27547;1440800;
27552;1440824;
27543;1440848;
27555;1440897;
27542;1440919;
27557;1440978;
27552;1441024;
27561;1441112;
27555;1441167;
27574;1441246;
27568;1441302;
27581;1441363;
27589;1441412;
27590;1441471;
27604;1441508;
27598;1441562;
27596;1441604;
27602;1441665;
27607;1441708;
27613;1441780;
27616;1703424;
27628;1703489;
27622;1703537;
27635;1703601;
27634;1703647;
27658;1703705;
27643;1703766;
27667;1703830;
27653;1703895;
27680;1703957;
27674;1704005;
27684;1704079;
27687;1704130;
27699;1704182;
27697;1704246;
27707;1704297;
27707;1704334;
27717;1704379;
27714;1704447;
27733;1704497;
27721;1704557;
27735;1704619;
27736;1704674;
27748;1704726;
27745;1704773;
27758;1704827;
27749;1704879;
27759;1704954;
27764;1704987;
27766;1705064;
27778;1705112;
27781;1705167;
27792;1705210;
27800;1705258;
27805;1705298;
27800;1705329;
27802;1705322;
27812;1705281;
27777;1705078;
27762;1704765;
27712;1704378;
27690;1704048;
27652;1703648;
27622;1703274;
27572;1702880;
27550;1702497;
27503;1702126;
27487;1701822;
27451;1701572;
27439;1701369;
27417;1701243;
27421;1701108;
27402;1701017;
27403;1700933;
27392;1700895;
27399;1700877;
27388;1700866;
27397;1700865;
27390;1700862;
27403;1700880;
27394;1700896;
27406;1700930;
27399;1700957;
27407;1701002;
27410;1701042;
27417;1701090;
27407;1701117;
27416;1701165;
27420;1701210;
27428;1701276;
27437;1701314;
27431;1701354;
27446;1701383;
27436;1701398;
27449;1701426;
27449;1701433;
27445;1701446;
27458;1701464;
27451;1701471;
27460;1701497;
27452;1701527;
27458;1701565;
27451;1701606;
27462;1701656;
27467;1701687;
27470;1701742;
27473;1701800;
27479;1701855;
27483;1701918;
27487;1701982;
27491;1702045;
27501;1702107;
27504;1702171;
27513;1702232;
27520;1702318;
27523;1702381;
27532;1702453;
27533;1702524;
27545;1702590;
27555;1702658;
27555;1702719;
27563;1702788;
27566;1702842;
27574;1702890;
27577;1702954;
27581;1703013;
27575;1703061;
27592;1703107;
27593;1703164;
27588;1703216;
27598;1703264;
27601;1703311;
27605;1703361;
27610;1703384;
27607;1703430;
27610;1703472;
27617;1703503;
27620;1703525;
27618;1703563;
27621;1703589;
27631;1703640;
27633;1703685;
27640;1703729;
27637;1703766;
27644;1703809;
27640;1703839;
27644;1703892;
27648;1703933;
27655;1703996;
27658;1704024;
27671;1704084;
27679;1704124;
27686;1704175;
27685;1704223;
27694;1704301;
27687;1704338;
27694;1704356;
27682;1704259;
27672;1704069;
27639;1703779;
27619;1703479;
27595;1703164;
27566;1702825;
27540;1702503;
27506;1702169;
27468;1701878;
27448;1701601;
27422;1701383;
27417;1701207;
27385;1701088;
27386;1701025;
27375;1700975;
27382;1700984;
27376;1700987;
27380;1701029;
27381;1701053;
27388;1701111;
27392;1701150;
27394;1701209;
27404;1701251;
27406;1701332;
27409;1701400;
27423;1701488;
27432;1701561;
27429;1701660;
27446;1701737;
27441;1701801;
27452;1701842;
27455;1701885;
27451;1701899;
27461;1701907;
27449;1701922;
27458;1701917;
27456;1701917;
27459;1701897;
27447;1701881;
27453;1701863;
27442;1701852;
27449;1701853;
27443;1701853;
27454;1701866;
27448;1701876;
27457;1701901;
27444;1701922;
27464;1701959;
27459;1701996;
27472;1702015;
27465;1702058;
27476;1702085;
27473;1702114;
27477;1702144;
27464;1702161;
27481;1702215;
27479;1702219;
27478;1702263;
27477;1702286;
27483;1702327;
27483;1702349;
27487;1702374;
27486;1702391;
27490;1702439;
27494;1702479;
27499;1702531;
27505;1702579;
27513;1702639;
27510;1702697;
27521;1702765;
27518;1702817;
27530;1702863;
27525;1702913;
27542;1702969;
27528;1703004;
27544;1703052;
27540;1703078;
27545;1703138;
27546;1703172;
27561;1703216;
27553;1703275;
27564;1703317;
27567;1703389;
27582;1703429;
27577;1703481;
27593;1703527;
27589;1703577;
27594;1703624;
27586;1703643;
27596;1703606;
27571;1703458;
27566;1703226;
27532;1702953;
27514;1702646;
27466;1702320;
27440;1701986;
27407;1701658;
27381;1701355;
27357;1701081;
27335;1700867;
27317;1700688;
27302;1700568;
27290;1700489;
27290;1700464;
27291;1700448;
27289;1700461;
27293;1700500;
27305;1700536;
27300;1700574;
27306;1700620;
27317;1700669;
27331;1700714;
27315;1700756;
27326;1700799;
27331;1700836;
27326;1700902;
27334;1700934;
27347;1700977;
27341;1700997;
27343;1701001;
27348;1701005;
27350;1700995;
27345;1700998;
27339;1700971;
27344;1700957;
27336;1700932;
27339;1700923;
27339;1700911;
27330;1700896;
27329;1700883;
27328;1700881;
27334;1700889;
27333;1700899;
27341;1700913;
27337;1700932;
27340;1700982;
27342;1701024;
27346;1701048;
27350;1701089;
27348;1701114;
27352;1701160;
27347;1701193;
27353;1701241;
27350;1701276;
27358;1701328;
27355;1701354;
27364;1701418;
27375;1701460;
27375;1701498;
27382;1701540;
27392;1701602;
27391;1701648;
27396;1701712;
27406;1701773;
27410;1701828;
27418;1701884;
27418;1701936;
27421;1701993;
27430;1702065;
27426;1702107;
27439;1702155;
27440;1702207;
27455;1702252;
27447;1702274;
27463;1702312;
27454;1702336;
27463;1702362;
27466;1702389;
27461;1702428;
27468;1702465;
27475;1702519;
27477;1702568;
27489;1702629;
27495;1702670;
27502;1702721;
27500;1702776;
27507;1702826;
27516;1702871;
27511;1702899;
27502;1702850;
27492;1702693;
27469;1702464;
27442;1702174;
27404;1701838;
27384;1701492;
27339;1701111;
27320;1700770;
27273;1700434;
27251;1700169;
27230;1699920;
27221;1699765;
27211;1699627;
27203;1699559;
27192;1699489;
27186;1699474;
27187;1699444;
27191;1699446;
27184;1699436;
27183;1699451;
27181;1699434;
27182;1699444;
27179;1699448;
27196;1699486;
27186;1699516;
27196;1699576;
27196;1699648;
27213;1699714;
27203;1699782;
27217;1699852;
27215;1699888;
27231;1699931;
27225;1699949;
27234;1699971;
27227;1699969;
27232;1699963;
27223;1699938;
27232;1699939;
27228;1699933;
27233;1699932;
27225;1699931;
27232;1699925;
27219;1699944;
27228;1699966;
27215;1699981;
27227;1700024;
27221;1700050;
27226;1700107;
27233;1700124;
27241;1700189;
27243;1700235;
27241;1700303;
27256;1700352;
27255;1700428;
27271;1700481;
27277;1700541;
27280;1700585;
27279;1700646;
27292;1700702;
27297;1700767;
27298;1700812;
27309;1700875;
27302;1700918;
27313;1700978;
27315;1701032;
27328;1701104;
27324;1701167;
27342;1701235;
27338;1701300;
27352;1701351;
27353;1701395;
27362;1701460;
27373;1701516;
27374;1701573;
27375;1701625;
27390;1701670;
27380;1701721;
27403;1701765;
27394;1701799;
27404;1701833;
27397;1701849;
27417;1701894;
27404;1701927;
27415;1701965;
27415;1702009;
27411;1702039;
27415;1702061;
27415;1702102;
27420;1702144;
27428;1702187;
27429;1702212;
27437;1702263;
27447;1702299;
27452;1702323;
27446;1702347;
27444;1702301;
27428;1702137;
27409;1701910;
27384;1701599;
27352;1701264;
27316;1700899;
27289;1700508;
27247;1700128;
27217;1699807;
27191;1699529;
27171;1699307;
27149;1699132;
27137;1699015;
27130;1698921;
27131;1698863;
27121;1698839;
27119;1698818;
27126;1698813;
27126;1698819;
27129;1698840;
27132;1698845;
27124;1698862;
27136;1698890;
27136;1698933;
27143;1698975;
27142;1699040;
27158;1699113;
27159;1699178;
27175;1699250;
27173;1699314;
27180;1699358;
27178;1699399;
27188;1699421;
27184;1699432;
27169;1699436;
27174;1699447;
27170;1699438;
27175;1699454;
27176;1699421;
27169;1699418;
27176;1699413;
27180;1699404;
27173;1699387;
27179;1699386;
27179;1699375;
27178;1699377;
27172;1699375;
27180;1699372;
27179;1699364;
27179;1699353;
27176;1699362;
27175;1699382;
27184;1699403;
27183;1699448;
27185;1699484;
27193;1699522;
27186;1699554;
27208;1699600;
27197;1699634;
27209;1699688;
27210;1699728;
27215;1699799;
27221;1699838;
27229;1699898;
27234;1699934;
27239;1699997;
27247;1700045;
27248;1700109;
27256;1700136;
27265;1700187;
27265;1700244;
27265;1700282;
27273;1700332;
27276;1700384;
27276;1700414;
27282;1700454;
27286;1700501;
27292;1700549;
27287;1700584;
27295;1700635;
27289;1700664;
27310;1700721;
27308;1700768;
27317;1700839;
27324;1700879;
27322;1700950;
27332;1700994;
27338;1701063;
27351;1701103;
27350;1701168;
27357;1701196;
27361;1701263;
27363;1701286;
27358;1701283;
27349;1701139;
27338;1700949;
27303;1700664;
27283;1700354;
27241;1700000;
27214;1699654;
27185;1699307;
27159;1699018;
27132;1698771;
27119;1698583;
27101;1698448;
27093;1698364;
27091;1698325;
27091;1698291;
27076;1698300;
27093;1698308;
27094;1698326;
27100;1698348;
27100;1698357;
27098;1698372;
27093;1698370;
27101;1698385;
27100;1698422;
27105;1698492;
27098;1698541;
27108;1698609;
27116;1698652;
27117;1698714;
27126;1698754;
27134;1698780;
27130;1698792;
27135;1698810;
27127;1698811;
27142;1698810;
27137;1698792;
27135;1698778;
27135;1698762;
27138;1698785;
27132;1698774;
27132;1698802;
27135;1698811;
27136;1698848;
27135;1698878;
27153;1698944;
27153;1698980;
27162;1699040;
27161;1699085;
27180;1699142;
27175;1699208;
27194;1699269;
27190;1699360;
27204;1699417;
27199;1699492;
27218;1699553;
27217;1699614;
27235;1699690;
27230;1699752;
27248;1699811;
27240;1699882;
27245;1699948;
27257;1700006;
27261;1700066;
27258;1700118;
27273;1700177;
27267;1700248;
27285;1700334;
27281;1700388;
27286;1700447;
27301;1700505;
27298;1700563;
27305;1700618;
27314;1700676;
27326;1700734;
27329;1700773;
27329;1700808;
27332;1700856;
27339;1700903;
27343;1700948;
27346;1700996;
27350;1701039;
27355;1701068;
27359;1701110;
27364;1701142;
27367;1701188;
27369;1701221;
27370;1701215;
27359;1701115;
27345;1700940;
27322;1700690;
27291;1700373;
27259;1700055;
27221;1699705;
27204;1699383;
27176;1699078;
27148;1698828;
27129;1698623;
27111;1698479;
27112;1698386;
27101;1698342;
27105;1698329;
27103;1698342;
27110;1698380;
27111;1698438;
27120;1698526;
27126;1698612;
27135;1698696;
27144;1698789;
27153;1698904;
27165;1699015;
27168;1699130;
27180;1699259;
27190;1699364;
27203;1699486;
27204;1699560;
27209;1699649;
27217;1699688;
27220;1699717;
27224;1699724;
27237;1699731;
27233;1699718;
27227;1699716;
27231;1699704;
27223;1699696;
27229;1699684;
27227;1699693;
27224;1699691;
27220;1699713;
27214;1699720;
27232;1699754;
27234;1699781;
27240;1699828;
27237;1699867;
27248;1699894;
27252;1699931;
27260;1699991;
27261;1700049;
27277;1700119;
27276;1700169;
27277;1700223;
27286;1700277;
27289;1700335;
27293;1700382;
27303;1700443;
27303;1700503;
27313;1700557;
27317;1700608;
27326;1700669;
27331;1700741;
27334;1700816;
27342;1700881;
27351;1700965;
27346;1701030;
27355;1701131;
27358;1701192;
27372;1701273;
27369;1701334;
27381;1701422;
27384;1701494;
27398;1701560;
27409;1701633;
27417;1701703;
27425;1701761;
27421;1701827;
27435;1701885;
27437;1701955;
27436;1702005;
27440;1702064;
27448;1702088;
27450;1702158;
27452;1702199;
27463;1702260;
27461;1702301;
27474;1702352;
27467;1702397;
27477;1702376;
27465;1702251;
27454;1702015;
27417;1701695;
27392;1701362;
27352;1701004;
27328;1700634;
27285;1700266;
27262;1699918;
27227;1699611;
27211;1699365;
27189;1699170;
27185;1699031;
27161;1698953;
27162;1698912;
27149;1698882;
27164;1698882;
27157;1698912;
27158;1698951;
27158;1698988;
27172;1699075;
27170;1699133;
27173;1699219;
27182;1699304;
27195;1699390;
27203;1699476;
27214;1699591;
27219;1699670;
27232;1699757;
27240;1699823;
27239;1699894;
27247;1699930;
27255;1699960;
27248;1699964;
27257;1699967;
27245;1699973;
27257;1699975;
27250;1699960;
27249;1699963;
27237;1699962;
27254;1699985;
27245;1700005;
27258;1700038;
27256;1700092;
27270;1700120;
27264;1700179;
27277;1700222;
27274;1700280;
27289;1700319;
27289;1700356;
27300;1700399;
27292;1700441;
27304;1700506;
27304;1700565;
27327;1700634;
27318;1700688;
27335;1700745;
27329;1700788;
27337;1700855;
27337;1700903;
27345;1700962;
27342;1701024;
27347;1701088;
27358;1701131;
27361;1701205;
27369;1701268;
27374;1701324;
27372;1701365;
27381;1701426;
27386;1701483;
27396;1701535;
27401;1701566;
27401;1701615;
27403;1701651;
27412;1701704;
27415;1701746;
27420;1701783;
27418;1701816;
27428;1701869;
27424;1701889;
27426;1701932;
27426;1701971;
27434;1702013;
27444;1702059;
27450;1702103;
27452;1702154;
27456;1702183;
27455;1702230;
27462;1702269;
27473;1702307;
27472;1702297;
27465;1702229;
27444;1702012;
27409;1701747;
27391;1701416;
27352;1701047;
27324;1700639;
27283;1700268;
27253;1699899;
27213;1699580;
27200;1699297;
27172;1699073;
27149;1698912;
27144;1698805;
27133;1698741;
27130;1698706;
27116;1698702;
27127;1698704;
27126;1698738;
27142;1698795;
27137;1698833;
27143;1698898;
27153;1698949;
27156;1699026;
27160;1699083;
27179;1699185;
27183;1699276;
27189;1699376;
27199;1699457;
27214;1699530;
27208;1699602;
27217;1699657;
27211;1699701;
27222;1699717;
27218;1699717;
27218;1699700;
27211;1699690;
27221;1699677;
27210;1699640;
27215;1699661;
27217;1699647;
27220;1699648;
27213;1699654;
27223;1699681;
27225;1699698;
27225;1699739;
27229;1699752;
27235;1699797;
27238;1699843;
27232;1699894;
27241;1699930;
27248;1699969;
27254;1700018;
27254;1700064;
27253;1700111;
27266;1700157;
27265;1700212;
27277;1700255;
27265;1700317;
27284;1700383;
27275;1700407;
27289;1700500;
27287;1700552;
27295;1700617;
27300;1700674;
27311;1700724;
27324;1700762;
27328;1700843;
27333;1700876;
27338;1700950;
27343;1701001;
27342;1701074;
27350;1701098;
27349;1701160;
27356;1701199;
27366;1701260;
27362;1701302;
27371;1701345;
27369;1701369;
27391;1701411;
27375;1701450;
27393;1701511;
27382;1701536;
27405;1701594;
27398;1701650;
27416;1701695;
27415;1701757;
27422;1701807;
27424;1701853;
27438;1701915;
27428;1701969;
27454;1702013;
27430;1702013;
27437;1701924;
27411;1701725;
27397;1701457;
27362;1701127;
27332;1700780;
27285;1700419;
27255;1700070;
27222;1699705;
27193;1699424;
27166;1699165;
27145;1699001;
27136;1698862;
27130;1698798;
27121;1698750;
27122;1698749;
27135;1698768;
27132;1698821;
27140;1698865;
27153;1698941;
27154;1699009;
27168;1699077;
27168;1699141;
27177;1699247;
27183;1699325;
27181;1699416;
27197;1699492;
27210;1699587;
27201;1699653;
27220;1699705;
27219;1699749;
27223;1699765;
27229;1699778;
27224;1699771;
27223;1699765;
27226;1699742;
27225;1699719;
27218;1699715;
27212;1699696;
27224;1699688;
27210;1699694;
27223;1699687;
27216;1699696;
27231;1699724;
27223;1699753;
27234;1699782;
27230;1699817;
27243;1699869;
27236;1699912;
27242;1699974;
27244;1700017;
27245;1700081;
27251;1700131;
27259;1700187;
27268;1700256;
27265;1700312;
27282;1700367;
27283;1700428;
27289;1700502;
27294;1700555;
27293;1700603;
27313;1700644;
27311;1700695;
27313;1700745;
27316;1700796;
27329;1700836;
27329;1700888;
27332;1700940;
27331;1700976;
27340;1701023;
27343;1701063;
27354;1701103;
27351;1701141;
27356;1701180;
27362;1701221;
27359;1701260;
27361;1701288;
27371;1701306;
27367;1701345;
27369;1701383;
27379;1701430;
27383;1701471;
27392;1701522;
27400;1701568;
27390;1701604;
27401;1701578;
27376;1701451;
27373;1701247;
27349;1700974;
27311;1700655;
27277;1700302;
27240;1699930;
27208;1699582;
27180;1699273;
27148;1699026;
27127;1698815;
27113;1698688;
27103;1698582;
27098;1698527;
27095;1698498;
27097;1698500;
27108;1698516;
27102;1698585;
27114;1698624;
27116;1698697;
27119;1698749;
27132;1698839;
27145;1698919;
27142;1699009;
27161;1699105;
27162;1699204;
27164;1699281;
27182;1699359;
27182;1699423;
27202;1699469;
27187;1699499;
27201;1699521;
27195;1699523;
27194;1699523;
27190;1699479;
27197;1699463;
27186;1699421;
27193;1699413;
27186;1699393;
27183;1699404;
27180;1699408;
27186;1699428;
27194;1699448;
27196;1699481;
27199;1699503;
27204;1699563;
27212;1699602;
27217;1699659;
27215;1699705;
27229;1699772;
27220;1699810;
27226;1699872;
27224;1699917;
27236;1699972;
27236;1700024;
27242;1700084;
27240;1700120;
27256;1700196;
27260;1700237;
27270;1700303;
27272;1700351;
27281;1700413;
27275;1700450;
27289;1700515;
27291;1700556;
27302;1700600;
27305;1700660;
27309;1700722;
27315;1700760;
27316;1700802;
27321;1700845;
27332;1700894;
27318;1700911;
27340;1700943;
27318;1700971;
27349;1701008;
27344;1701039;
27359;1701068;
27350;1701111;
27360;1701148;
27358;1701176;
27368;1701215;
27360;1701259;
27381;1701296;
27374;1701348;
27391;1701383;
27374;1701417;
27393;1701455;
27382;1701471;
27393;1701425;
27370;1701263;
27353;1701021;
27315;1700695;
27285;1700334;
27243;1699951;
27216;1699589;
27172;1699240;
27144;1698957;
27126;1698710;
27115;1698529;
27093;1698394;
27090;1698322;
27091;1698271;
27090;1698259;
27083;1698280;
27095;1698319;
27091;1698343;
27100;1698382;
27101;1698427;
27116;1698492;
27101;1698535;
27118;1698618;
27119;1698665;
27130;1698746;
27124;1698820;
27144;1698906;
27138;1698991;
27161;1699058;
27159;1699114;
27172;1699157;
27173;1699173;
27177;1699194;
27170;1699214;
27177;1699218;
27173;1699196;
27173;1699196;
27173;1699189;
27174;1699180;
27169;1699176;
27180;1699179;
27166;1699186;
27182;1699223;
27174;1699245;
27189;1699288;
27187;1699316;
27203;1699371;
27187;1699402;
27197;1699456;
27202;1699498;
27204;1699556;
27203;1699614;
27212;1699671;
27220;1699734;
27229;1699771;
27232;1699827;
27232;1699891;
27241;1699926;
27250;1699989;
27254;1700040;
27263;1700088;
27265;1700139;
27283;1700195;
27267;1700232;
27283;1700298;
27285;1700327;
27286;1700384;
27288;1700418;
27287;1700469;
27289;1700509;
27305;1700550;
27297;1700595;
27310;1700636;
27314;1700686;
27316;1700698;
27324;1700751;
27327;1700775;
27332;1700814;
27332;1700859;
27333;1700877;
27339;1700915;
27332;1700949;
27344;1700973;
27352;1701025;
27357;1701072;
27357;1701107;
27369;1701152;
27362;1701174;
27365;1701213;
27368;1701264;
27376;1701311;
27378;1701363;
27376;1701415;
27387;1701460;
27389;1701496;
27394;1701565;
27393;1701587;
27398;1701610;
27388;1701536;
27384;1701351;
27352;1701070;
27322;1700743;
27293;1700373;
27259;1700003;
27225;1699621;
27189;1699273;
27164;1698987;
27134;1698749;
27124;1698584;
27109;1698478;
27102;1698409;
27102;1698353;
27090;1698353;
27102;1698360;
27096;1698393;
27108;1698449;
27113;1698480;
27124;1698547;
27115;1698588;
27126;1698652;
27133;1698705;
27135;1698782;
27148;1698849;
27156;1698931;
27162;1699022;
27171;1699107;
27186;1699174;
27189;1699223;
27189;1699270;
27193;1699312;
27197;1699324;
27197;1699332;
27192;1699334;
27197;1699336;
27185;1699324;
27198;1699299;
27176;1699280;
27186;1699276;
27176;1699260;
27192;1699282;
27183;1699275;
27191;1699296;
27189;1699313;
27200;1699356;
27207;1699386;
27209;1699450;
27211;1699483;
27212;1699549;
27230;1699598;
27231;1699674;
27229;1699730;
27235;1699800;
27247;1699847;
27252;1699927;
27246;1699981;
27264;1700054;
27255;1700106;
27278;1700169;
27273;1700225;
27293;1700287;
27282;1700324;
27304;1700373;
27301;1700428;
27314;1700487;
27314;1700547;
27328;1700605;
27325;1700645;
27341;1700702;
27324;1700742;
27348;1700780;
27339;1700815;
27356;1700850;
27347;1700905;
27356;1700946;
27355;1700988;
27369;1701026;
27372;1701061;
27371;1701102;
27368;1701142;
27373;1701185;
27377;1701228;
27368;1701275;
27387;1701310;
27385;1701360;
27388;1701390;
27391;1701436;
27404;1701466;
27407;1701507;
27403;1701537;
27416;1701599;
27417;1701646;
27420;1701706;
27431;1701747;
27438;1701807;
27433;1701854;
27442;1701890;
27436;1701824;
27427;1701670;
27402;1701415;
27368;1701123;
27337;1700765;
27309;1700397;
27267;1700031;
27246;1699686;
27216;1699396;
27198;1699143;
27164;1698967;
27165;1698846;
27154;1698764;
27153;1698723;
27144;1698711;
27152;1698730;
27150;1698765;
27156;1698807;
27160;1698869;
27171;1698937;
27162;1698988;
27184;1699053;
27176;1699110;
27190;1699186;
27199;1699267;
27201;1699355;
27211;1699443;
27208;1699539;
27220;1699611;
27224;1699680;
27229;1699720;
27238;1699741;
27240;1699747;
27233;1699738;
27237;1699745;
27239;1699720;
27235;1699712;
27237;1699704;
27234;1699678;
27242;1699694;
27234;1699699;
27241;1699724;
27231;1699733;
27238;1699777;
27240;1699777;
27252;1699825;
27246;1699881;
27262;1699932;
27257;1699975;
27262;1700033;
27268;1700090;
27276;1700121;
27278;1700181;
27285;1700231;
27286;1700296;
27292;1700332;
27298;1700390;
27303;1700425;
27311;1700483;
27314;1700538;
27315;1700589;
27327;1700633;
27321;1700676;
27331;1700720;
27324;1700763;
27335;1700803;
27342;1700855;
27339;1700894;
27347;1700951;
27344;1700993;
27362;1701052;
27345;1701088;
27358;1701133;
27355;1701157;
27374;1701201;
27372;1701215;
27379;1701284;
27373;1701292;
27380;1701331;
27381;1701346;
27393;1701382;
27395;1701412;
27403;1701453;
27404;1701496;
27393;1701533;
27402;1701567;
27407;1701595;
27407;1701630;
27413;1701669;
27414;1701699;
27427;1701740;
27422;1701734;
27422;1701669;
27393;1701490;
27386;1701253;
27346;1700933;
27321;1700613;
27290;1700250;
27258;1699892;
27222;1699565;
27199;1699301;
27178;1699057;
27154;1698903;
27148;1698778;
27137;1698719;
27131;1698682;
27139;1698665;
27140;1698691;
27133;1698736;
27137;1698787;
27148;1698838;
27142;1698901;
27156;1698961;
27150;1699014;
27161;1699095;
27167;1699162;
27178;1699267;
27179;1699349;
27196;1699458;
27206;1699524;
27219;1699588;
27216;1699632;
27223;1699680;
27224;1699692;
27227;1699717;
27229;1699702;
27227;1699697;
27227;1699664;
27224;1699670;
27225;1699641;
27222;1699627;
27216;1699596;
27219;1699603;
27218;1699594;
27221;1699614;
27217;1699626;
27226;1699660;
27223;1699698;
27242;1699752;
27239;1699783;
27253;1699829;
27244;1699876;
27258;1699920;
27253;1699972;
27273;1700025;
27270;1700085;
27284;1700144;
27274;1700198;
27295;1700273;
27290;1700333;
27302;1700372;
27300;1700422;
27300;1700481;
27297;1700529;
27315;1700575;
27300;1700622;
27324;1700686;
27323;1700718;
27324;1700776;
27328;1700818;
27333;1700885;
27345;1700921;
27345;1700988;
27352;1701030;
27358;1701075;
27368;1701114;
27371;1701157;
27371;1701197;
27378;1701256;
27382;1701281;
27388;1701327;
27380;1701353;
27390;1701411;
27396;1701446;
27405;1701488;
27397;1701510;
27409;1701558;
27403;1701599;
27416;1701644;
27420;1701677;
27432;1701716;
27429;1701770;
27436;1701813;
27430;1701864;
27441;1701909;
27446;1701958;
27457;1701991;
27446;1701942;
27439;1701798;
27409;1701541;
27396;1701240;
27352;1700888;
27329;1700521;
27277;1700129;
27255;1699776;
27215;1699454;
27198;1699202;
27175;1699002;
27161;1698869;
27146;1698784;
27145;1698749;
27136;1698726;
27145;1698742;
27139;1698777;
27146;1698820;
27156;1698874;
27162;1698932;
27165;1699006;
27177;1699067;
27191;1699130;
27194;1699206;
27190;1699304;
27217;1699389;
27211;1699471;
27219;1699550;
27226;1699627;
27241;1699717;
27229;1699761;
27242;1699798;
27238;1699815;
27241;1699837;
27246;1699822;
27239;1699816;
27247;1699821;
27238;1699809;
27250;1699821;
27245;1699801;
27246;1699799;
27251;1699793;
27240;1699818;
27242;1699846;
27255;1699882;
27263;1699914;
27251;1699954;
27267;1700002;
27267;1700047;
27284;1700112;
27276;1700161;
27291;1700228;
27288;1700282;
27291;1700351;
27303;1700417;
27300;1700458;
27312;1700528;
27302;1700574;
27319;1700654;
27319;1700703;
27322;1700761;
27330;1700819;
27342;1700891;
27346;1700930;
27353;1700993;
27354;1701036;
27366;1701092;
27368;1701150;
27366;1701190;
27381;1701242;
27380;1701287;
27383;1701322;
27383;1701352;
27384;1701391;
27396;1701442;
27392;1701464;
27397;1701513;
27398;1701543;
27415;1701586;
27398;1701624;
27426;1701667;
27411;1701698;
27435;1701754;
27423;1701789;
27436;1701847;
27436;1701880;
27444;1701916;
27447;1701960;
27449;1702004;
27453;1702020;
27458;1701976;
27444;1701851;
27421;1701615;
27401;1701322;
27367;1700992;
27330;1700628;
27293;1700266;
27258;1699925;
27239;1699628;
27198;1699371;
27180;1699188;
27163;1699044;
27165;1698962;
27153;1698912;
27155;1698926;
27149;1698930;
27157;1698976;
27167;1699025;
27169;1699070;
27176;1699138;
27187;1699209;
27184;1699272;
27199;1699358;
27207;1699425;
27211;1699534;
27223;1699603;
27231;1699710;
27235;1699781;
27249;1699859;
27238;1699913;
27260;1699951;
27258;1699980;
27269;1700006;
27253;1700016;
27256;1700022;
27261;1700009;
27265;1700019;
27247;1700012;
27255;1699990;
27256;1699992;
27265;1700002;
27260;1700019;
27265;1700055;
27263;1700077;
27283;1700099;
27268;1700153;
27289;1700188;
27283;1700240;
27292;1700302;
27284;1700350;
27298;1700379;
27293;1700434;
27295;1700488;
27301;1700546;
27317;1700624;
27310;1700665;
27320;1700733;
27329;1700788;
27316;1700846;
27340;1700900;
27342;1700969;
27350;1701024;
27352;1701085;
27355;1701132;
27359;1701208;
27371;1701264;
27381;1701331;
27383;1701371;
27392;1701431;
27396;1701473;
27400;1701531;
27389;1701574;
27408;1701625;
27402;1701649;
27412;1701693;
27408;1701734;
27420;1701780;
27428;1701815;
27426;1701849;
27428;1701916;
27440;1701961;
27444;1702004;
27456;1702047;
27452;1702078;
27451;1702052;
27435;1701938;
27428;1701737;
27390;1701476;
27375;1701193;
27336;1700860;
27321;1700537;
27278;1700226;
27259;1699941;
27226;1699693;
27210;1699503;
27192;1699364;
27182;1699270;
27179;1699211;
27159;1699186;
27165;1699196;
27162;1699230;
27183;1699276;
27182;1699330;
27187;1699393;
27191;1699466;
27206;1699519;
27210;1699591;
27209;1699660;
27225;1699755;
27232;1699832;
27243;1699926;
27239;1700001;
27258;1700091;
27259;1700132;
27267;1700190;
27261;1700203;
27269;1700237;
27263;1700224;
27267;1700202;
27266;1700214;
27271;1700193;
27266;1700183;
27266;1700174;
27260;1700181;
27265;1700178;
27266;1700223;
27269;1700242;
27273;1700279;
27277;1700302;
27279;1700334;
27285;1700366;
27287;1700396;
27292;1700445;
27301;1700488;
27299;1700522;
27302;1700579;
27307;1700611;
27305;1700660;
27303;1700694;
27316;1700752;
27300;1700788;
27323;1700846;
27313;1700894;
27332;1700956;
27331;1701003;
27340;1701073;
27340;1701112;
27356;1701154;
27353;1701208;
27361;1701277;
27363;1701321;
27376;1701379;
27382;1701424;
27379;1701473;
27392;1701525;
27384;1701577;
27402;1701636;
27402;1701682;
27405;1701722;
27415;1701768;
27413;1701802;
27430;1701841;
27421;1701887;
27432;1701923;
27427;1701926;
27432;1701915;
27420;1701813;
27416;1701644;
27389;1701425;
27377;1701161;
27338;1700862;
27315;1700565;
27283;1700276;
27257;1700008;
27242;1699785;
27221;1699611;
27213;1699481;
27200;1699420;
27194;1699357;
27192;1699375;
27198;1699392;
27198;1699442;
27197;1699504;
27212;1699561;
27201;1699627;
27220;1699729;
27225;1699801;
27239;1699905;
27240;1699992;
27260;1700116;
27263;1700208;
27283;1700308;
27288;1700399;
27300;1700489;
27298;1700532;
27310;1700582;
27308;1700590;
27306;1700625;
27306;1700618;
27315;1700630;
27317;1700622;
27316;1700629;
27299;1700600;
27308;1700610;
27307;1700612;
27312;1700631;
27302;1700651;
27323;1700685;
27312;1700710;
27329;1700743;
27323;1700782;
27337;1700836;
27330;1700870;
27340;1700927;
27336;1700980;
27352;1701027;
27351;1701090;
27368;1701148;
27356;1701192;
27369;1701269;
27366;1701303;
27382;1701360;
27385;1701404;
27389;1701464;
27388;1701503;
27404;1701554;
27398;1701600;
27400;1701658;
27403;1701685;
27417;1701737;
27413;1701775;
27419;1701828;
27415;1701877;
27424;1701938;
27432;1701975;
27436;1702039;
27447;1702069;
27449;1702118;
27457;1702146;
27457;1702200;
27460;1702242;
27475;1702290;
27462;1702329;
27484;1702390;
27475;1702416;
27490;1702476;
27481;1702505;
27490;1702527;
27484;1702502;
27486;1702408;
27454;1702196;
27439;1701957;
27410;1701690;
27388;1701389;
27365;1701072;
27331;1700782;
27294;1700483;
27283;1700232;
27253;1700004;
27241;1699842;
27224;1699718;
27216;1699644;
27206;1699591;
27226;1699602;
27209;1699618;
27220;1699667;
27212;1699702;
27235;1699775;
27231;1699831;
27234;1699913;
27239;1699995;
27245;1700084;
27256;1700162;
27265;1700258;
27266;1700337;
27277;1700399;
27286;1700427;
27290;1700475;
27285;1700499;
27300;1700529;
27295;1700511;
27304;1700506;
27288;1700500;
27293;1700482;
27294;1700477;
27292;1700472;
27286;1700459;
27292;1700459;
27290;1700444;
27297;1700485;
27292;1700489;
27301;1700523;
27305;1700541;
27305;1700579;
27307;1700615;
27316;1700634;
27312;1700676;
27315;1700714;
27313;1700745;
27324;1700770;
27328;1700826;
27329;1700843;
27336;1700898;
27340;1700945;
27332;1700991;
27347;1701039;
27353;1701082;
27353;1701132;
27357;1701178;
27366;1701226;
27368;1701270;
27379;1701317;
27381;1701373;
27376;1701416;
27387;1701463;
27385;1701491;
27391;1701533;
27389;1701561;
27396;1701611;
27400;1701657;
27400;1701705;
27408;1701717;
27417;1701775;
27418;1701825;
27432;1701864;
27431;1701908;
27437;1701957;
27430;1702001;
27436;1702001;
27431;1701947;
27417;1701816;
27400;1701607;
27376;1701361;
27350;1701109;
27326;1700842;
27295;1700570;
27277;1700332;
27255;1700124;
27233;1699963;
27223;1699834;
27225;1699768;
27212;1699691;
27207;1699686;
27208;1699691;
27212;1699727;
27220;1699784;
27233;1699870;
27235;1699933;
27249;1700020;
27253;1700101;
27261;1700212;
27273;1700319;
27288;1700415;
27290;1700506;
27302;1700591;
27307;1700656;
27314;1700718;
27318;1700738;
27312;1700753;
27307;1700772;
27316;1700780;
27303;1700768;
27320;1700750;
27304;1700727;
27311;1700721;
27308;1700704;
27311;1700700;
27313;1700695;
27310;1700688;
27318;1700689;
27316;1700717;
27318;1700737;
27315;1700781;
27324;1700798;
27332;1700843;
27333;1700867;
27333;1700900;
27331;1700939;
27341;1700984;
27330;1701023;
27351;1701058;
27338;1701093;
27366;1701124;
27357;1701153;
27364;1701208;
27365;1701244;
27380;1701284;
27377;1701331;
27387;1701383;
27384;1701429;
27393;1701485;
27395;1701520;
27409;1701553;
27406;1701593;
27412;1701639;
27410;1701675;
27421;1701719;
27420;1701760;
27430;1701819;
27424;1701855;
27428;1701896;
27428;1701925;
27438;1701972;
27434;1701993;
27437;1702024;
27438;1701986;
27425;1701891;
27412;1701720;
27399;1701530;
27377;1701305;
27356;1701061;
27329;1700807;
27307;1700576;
27285;1700372;
27278;1700199;
27257;1700058;
27239;1699960;
27238;1699885;
27231;1699857;
27230;1699839;
27227;1699878;
27225;1699895;
27233;1699965;
27239;1700004;
27248;1700086;
27253;1700151;
27264;1700243;
27271;1700334;
27284;1700415;
27291;1700503;
27302;1700577;
27307;1700653;
27311;1700712;
27317;1700751;
27322;1700775;
27314;1700799;
27331;1700827;
27320;1700841;
