22207;869463;
28623;1708366;
28630;1711983;
28617;1712050;
28637;1712124;
28630;1712181;
28636;1712265;
28641;1712317;
28637;1712390;
28644;1712441;
28650;1712505;
28655;1712547;
28648;1712613;
28653;1712639;
28653;1712680;
28654;1712720;
28655;1712761;
28659;1712790;
28649;1712836;
28655;1712866;
28661;1712905;
28655;1712950;
28668;1712995;
28663;1713023;
28675;1713075;
28667;1713102;
28675;1713145;
28676;1713182;
28682;1713242;
28679;1713309;
28695;1713380;
28703;1713440;
28709;1713526;
28712;1713609;
28723;1713676;
28736;1713738;
28732;1713794;
28739;1713840;
28752;1713884;
28748;1713927;
28748;1713941;
28750;1713966;
28753;1713986;
28731;1713964;
28734;1713919;
28709;1713770;
28702;1713579;
28681;1713342;
28657;1713081;
28625;1712774;
28601;1712508;
28587;1712259;
28577;1712045;
28557;1711845;
28545;1711706;
28543;1711575;
28528;1711504;
28525;1711425;
28519;1711380;
28507;1711332;
28503;1711323;
28492;1711291;
28504;1711323;
28495;1711336;
28514;1711393;
28504;1711434;
28518;1711490;
28523;1711551;
28541;1711604;
28533;1711651;
28553;1711701;
28554;1711734;
28554;1711765;
28560;1711801;
28576;1711828;
28564;1711851;
28575;1711866;
28567;1711906;
28578;1711955;
28576;1712004;
28592;1712050;
28589;1712089;
28591;1712145;
28592;1712175;
28597;1712218;
28595;1712247;
28599;1712296;
28600;1712326;
28610;1712360;
28606;1712385;
28617;1712411;
28617;1712419;
28621;1712449;
28623;1712461;
28634;1712496;
28632;1712542;
28638;1712584;
28643;1712637;
28650;1712693;
28645;1712733;
28653;1712782;
28648;1712807;
28667;1712846;
28657;1712866;
28675;1712892;
28663;1712872;
28682;1712879;
28674;1712888;
28685;1712886;
28680;1712896;
28695;1712880;
28692;1712859;
28690;1712774;
28671;1712637;
28666;1712456;
28646;1712219;
28639;1711975;
28604;1711727;
28605;1711508;
28567;1711301;
28563;1711139;
28540;1710992;
28551;1710908;
28537;1710833;
28542;1710806;
28534;1710801;
28541;1710854;
28551;1710902;
28551;1710979;
28566;1711061;
28576;1711144;
28585;1711225;
28596;1711306;
28602;1711398;
28619;1711453;
28616;1711500;
28626;1711519;
28618;1711516;
28626;1711495;
28612;1711484;
28614;1711460;
28613;1711449;
28607;1711448;
28600;1711443;
28600;1711443;
28604;1711452;
28598;1711484;
28595;1711499;
28599;1711520;
28603;1711553;
28606;1711573;
28605;1711618;
28612;1711644;
28601;1711682;
28602;1711727;
28607;1711797;
28618;1711884;
28616;1712006;
28625;1712109;
28632;1712218;
28637;1712311;
28636;1712416;
28648;1712509;
28643;1712586;
28655;1712675;
28658;1712751;
28650;1712817;
28667;1712883;
28659;1712917;
28672;1712984;
28664;1713032;
28682;1713095;
28679;1713135;
28686;1713218;
28691;1713271;
28700;1713330;
28704;1713389;
28706;1713447;
28710;1713462;
28715;1713494;
28711;1713534;
28715;1713594;
28716;1713618;
28708;1713544;
28699;1713402;
28677;1713219;
28655;1712986;
28643;1712738;
28612;1712495;
28598;1712248;
28582;1712023;
28563;1711834;
28545;1711618;
28536;1711458;
28518;1711281;
28520;1711157;
28506;1711007;
28508;1710864;
28498;1710770;
28492;1710699;
28496;1710677;
28489;1710682;
28494;1710682;
28492;1710697;
28484;1710723;
28488;1710725;
28476;1710741;
28489;1710747;
28477;1710750;
28472;1710745;
28460;1710725;
28470;1710710;
28458;1710687;
28453;1710677;
28444;1710648;
28446;1710636;
28442;1710600;
28440;1710580;
28433;1710554;
28442;1710536;
28427;1710489;
28420;1710470;
28425;1710447;
28420;1710450;
28413;1710443;
28412;1710451;
28413;1710449;
28421;1710491;
28414;1710510;
28422;1710553;
28421;1710607;
28436;1710666;
28435;1710722;
28454;1710822;
28454;1710920;
28465;1711013;
28454;1711095;
28478;1711184;
28478;1711251;
28493;1711331;
28495;1711385;
28512;1711456;
28506;1711509;
28521;1711563;
28518;1711598;
28533;1711633;
28521;1711657;
28533;1711708;
28529;1711761;
28534;1711819;
28533;1711882;
28542;1711950;
28543;1712018;
28548;1712100;
28549;1712154;
28563;1712218;
28562;1712274;
28569;1712333;
28576;1712377;
28584;1712415;
28568;1712357;
28568;1712272;
28560;1712107;
28541;1711924;
28511;1711718;
28498;1711527;
28474;1711338;
28466;1711197;
28440;1711067;
28441;1710957;
28426;1710858;
28428;1710783;
28419;1710722;
28418;1710702;
28423;1710691;
28425;1710675;
28429;1710722;
28436;1710783;
28432;1710868;
28443;1710964;
28444;1711061;
28463;1711154;
28457;1711267;
28479;1711359;
28484;1711423;
28495;1711491;
28485;1711528;
28494;1711563;
28495;1711574;
28489;1711605;
28491;1711610;
28493;1711639;
28496;1711681;
28489;1711732;
28495;1711778;
28498;1711822;
28498;1711851;
28508;1711904;
28510;1711940;
28510;1711968;
28511;1711998;
28515;1712043;
28517;1712085;
28535;1712131;
28524;1712170;
28537;1712222;
28533;1712254;
28543;1712308;
28538;1712332;
28550;1712373;
28561;1712411;
28564;1712439;
28567;1712464;
28570;1712454;
28576;1712458;
28577;1712442;
28582;1712434;
28582;1712398;
28579;1712346;
28574;1712277;
28564;1712234;
28568;1712208;
28558;1712182;
28566;1712153;
28560;1712149;
28563;1712179;
28568;1712192;
28569;1712218;
28566;1712239;
28572;1712258;
28565;1712261;
28560;1712279;
28564;1712242;
28548;1712140;
28525;1711974;
28507;1711780;
28492;1711565;
28465;1711324;
28449;1711123;
28432;1710912;
28422;1710758;
28408;1710618;
28395;1710531;
28399;1710469;
28387;1710425;
28394;1710428;
28387;1710443;
28393;1710486;
28393;1710524;
28399;1710582;
28411;1710643;
28413;1710720;
28423;1710783;
28428;1710840;
28438;1710888;
28439;1710919;
28447;1710951;
28440;1710945;
28449;1710957;
28443;1710956;
28442;1710959;
28443;1710966;
28455;1710969;
28448;1710975;
28451;1711016;
28443;1711046;
28459;1711065;
28459;1711099;
28461;1711117;
28454;1711136;
28456;1711144;
28453;1711179;
28460;1711197;
28445;1711203;
28452;1711248;
28447;1711269;
28456;1711302;
28444;1711325;
28459;1711361;
28461;1711370;
28468;1711406;
28465;1711433;
28475;1711452;
28476;1711470;
28482;1711520;
28489;1711545;
28497;1711576;
28493;1711623;
28496;1711691;
28499;1711728;
28499;1711778;
28498;1711808;
28506;1711861;
28507;1711901;
28512;1711940;
28505;1711977;
28516;1711954;
28497;1711843;
28488;1711688;
28455;1711480;
28446;1711229;
28418;1710990;
28406;1710759;
28379;1710564;
28366;1710409;
28345;1710294;
28353;1710187;
28331;1710130;
28342;1710087;
28318;1710070;
28327;1710097;
28326;1710096;
28331;1710133;
28327;1710175;
28336;1710236;
28334;1710304;
28333;1710395;
28340;1710472;
28347;1710572;
28353;1710640;
28361;1710720;
28369;1710762;
28370;1710791;
28379;1710784;
28378;1710799;
28376;1710784;
28379;1710774;
28372;1710750;
28374;1710741;
28371;1710718;
28380;1710733;
28374;1710740;
28369;1710758;
28373;1710783;
28377;1710812;
28375;1710851;
28392;1710882;
28379;1710908;
28398;1710924;
28391;1710936;
28398;1710924;
28395;1710937;
28399;1710958;
28400;1711003;
28407;1711051;
28400;1711089;
28416;1711129;
28409;1711166;
28424;1711216;
28419;1711272;
28429;1711313;
28422;1711341;
28438;1711377;
28425;1711390;
28432;1711416;
28430;1711451;
28435;1711467;
28422;1711364;
28413;1711203;
28387;1710997;
28360;1710731;
28344;1710441;
28311;1710163;
28296;1709887;
28279;1709676;
28251;1709518;
28244;1709377;
28234;1709293;
28225;1709243;
28218;1709200;
28223;1709186;
28207;1709184;
28218;1709205;
28213;1709230;
28222;1709268;
28220;1709303;
28238;1709352;
28230;1709414;
28240;1709479;
28245;1709520;
28241;1709556;
28247;1709614;
28259;1709647;
28254;1709686;
28273;1709704;
28259;1709741;
28268;1709750;
28256;1709771;
28265;1709778;
28262;1709778;
28278;1709783;
28257;1709797;
28272;1709796;
28270;1709787;
28275;1709776;
28266;1709761;
28267;1709734;
28262;1709720;
28255;1709714;
28271;1709699;
28254;1709662;
28265;1709669;
28261;1709648;
28268;1709641;
28266;1709632;
28275;1709666;
28279;1709691;
28290;1709739;
28290;1709782;
28295;1709828;
28292;1709866;
28300;1709919;
28307;1709976;
28309;1710037;
28316;1710070;
28318;1710103;
28314;1710081;
28308;1709957;
28285;1709738;
28275;1709489;
28241;1709194;
28222;1708940;
28195;1708705;
28183;1708523;
28164;1708377;
28165;1708292;
28146;1708226;
28149;1708181;
28138;1708132;
28145;1708091;
28141;1708066;
28133;1708070;
28128;1708116;
28147;1708179;
28142;1708258;
28150;1708347;
28154;1708461;
28164;1708580;
28162;1708691;
28177;1708815;
28173;1708886;
28186;1708989;
28177;1709037;
28194;1709099;
28188;1709120;
28195;1709116;
28188;1709129;
28196;1709157;
28203;1709174;
28204;1709209;
28209;1709241;
28213;1709276;
28222;1709288;
28227;1709341;
28225;1709355;
28230;1709399;
28224;1709435;
28239;1709474;
28235;1709511;
28248;1709556;
28246;1709597;
28264;1709645;
28258;1709688;
28275;1709749;
28264;1709775;
28279;1709789;
28276;1709825;
28289;1709859;
28282;1709871;
28295;1709908;
28290;1709944;
28312;1709968;
28307;1709986;
28313;1710012;
28318;1710039;
28331;1710086;
28326;1710119;
28319;1710081;
28307;1709963;
28300;1709775;
28266;1709506;
28238;1709238;
28214;1708952;
28189;1708706;
28171;1708493;
28153;1708324;
28141;1708207;
28137;1708139;
28130;1708092;
28137;1708091;
28136;1708074;
28143;1708098;
28139;1708108;
28156;1708150;
28150;1708187;
28166;1708254;
28167;1708305;
28179;1708380;
28182;1708436;
28195;1708492;
28188;1708521;
28201;1708567;
28198;1708599;
28207;1708628;
28202;1708682;
28221;1708737;
28229;1708844;
28242;1708979;
28257;1709145;
28276;1709333;
28291;1709524;
28310;1709726;
28318;1709915;
28346;1710101;
28350;1710231;
28370;1710355;
28368;1710443;
28378;1710537;
28385;1710605;
28388;1710684;
28395;1710763;
28400;1710863;
28411;1710941;
28410;1711023;
28422;1711095;
28422;1711152;
28430;1711189;
28436;1711222;
28443;1711244;
28451;1711246;
28438;1711254;
28447;1711256;
28438;1711279;
28452;1711305;
28444;1711311;
28449;1711344;
28446;1711362;
28454;1711384;
28442;1711397;
28447;1711364;
28432;1711248;
28417;1711062;
28392;1710764;
28370;1710458;
28335;1710132;
28310;1709813;
28278;1709550;
28265;1709302;
28252;1709132;
28233;1709014;
28230;1708948;
28234;1708897;
28220;1708871;
28228;1708832;
28220;1708823;
28227;1708811;
28221;1708803;
28222;1708792;
28230;1708805;
28227;1708798;
28228;1708789;
28234;1708775;
28231;1708761;
28226;1708737;
28227;1708751;
28225;1708727;
28222;1708728;
28216;1708705;
28227;1708701;
28213;1708669;
28221;1708679;
28209;1708673;
28226;1708680;
28223;1708709;
28225;1708749;
28227;1708794;
28227;1708850;
28225;1708904;
28234;1708952;
28235;1709008;
28230;1709060;
28230;1709124;
28242;1709192;
28241;1709257;
28258;1709318;
28255;1709384;
28276;1709450;
28268;1709516;
28280;1709571;
28282;1709610;
28292;1709662;
28286;1709691;
28298;1709738;
28300;1709770;
28316;1709802;
28313;1709853;
28324;1709887;
28337;1709931;
28340;1709966;
28338;1709985;
28340;1710014;
28339;1710022;
28339;1709942;
28309;1709782;
28301;1709527;
28254;1709186;
28234;1708805;
28185;1708393;
28165;1707997;
28121;1707617;
28095;1707293;
28065;1706979;
28042;1706717;
28026;1706462;
28016;1706287;
28005;1706144;
27996;1706050;
27981;1705980;
27985;1705959;
27985;1705972;
27993;1706028;
27991;1706102;
28005;1706211;
28009;1706309;
28030;1706445;
28027;1706573;
28046;1706688;
28041;1706783;
28072;1706870;
28063;1706948;
28079;1707020;
28081;1707101;
28088;1707176;
28100;1707262;
28110;1707336;
28107;1707417;
28128;1707510;
28119;1707598;
28144;1707673;
28132;1707748;
28147;1707832;
28142;1707895;
28164;1707994;
28157;1708076;
28168;1708163;
28164;1708229;
28171;1708330;
28173;1708408;
28183;1708494;
28193;1708550;
28199;1708636;
28207;1708708;
28220;1708803;
28228;1708893;
28242;1708970;
28245;1709028;
28256;1709081;
28256;1709101;
28258;1709105;
28260;1709056;
28255;1709034;
28246;1708948;
28231;1708786;
28205;1708490;
28183;1708146;
28135;1707728;
28103;1707303;
28061;1706885;
28029;1706526;
27988;1706261;
27976;1706077;
27959;1705979;
27964;1705936;
27961;1705958;
27966;1706002;
27964;1706069;
27985;1706141;
27983;1706232;
28006;1706318;
27992;1706414;
28024;1706510;
28012;1706615;
28033;1706746;
28038;1706875;
28054;1707016;
28059;1707146;
28068;1707255;
28085;1707358;
28084;1707442;
28099;1707533;
28097;1707614;
28115;1707688;
28115;1707755;
28127;1707836;
28140;1707906;
28138;1707988;
28146;1708055;
28155;1708144;
28167;1708225;
28169;1708313;
28182;1708392;
28182;1708483;
28192;1708576;
28199;1708659;
28215;1708752;
28207;1708831;
28226;1708911;
28229;1708998;
28238;1709062;
28245;1709152;
28262;1709225;
28266;1709329;
28277;1709414;
28286;1709509;
28291;1709595;
28291;1709666;
28306;1709725;
28302;1709807;
28314;1709860;
28309;1709894;
28327;1709938;
28322;1709996;
28334;1710043;
28319;1710100;
28335;1710106;
28319;1710035;
28299;1709842;
28271;1709583;
28226;1709242;
28196;1708857;
28148;1708473;
28127;1708152;
28095;1707873;
28068;1707690;
28057;1707531;
28050;1707442;
28042;1707361;
28041;1707322;
28033;1707310;
28031;1707302;
28025;1707291;
28017;1707266;
28016;1707261;
28017;1707259;
28015;1707287;
28020;1707344;
28019;1707421;
28032;1707498;
28030;1707599;
28047;1707701;
28051;1707772;
28067;1707874;
28065;1707944;
28082;1708045;
28073;1708129;
28099;1708205;
28091;1708261;
28103;1708337;
28105;1708388;
28111;1708447;
28108;1708485;
28123;1708546;
28123;1708589;
28123;1708640;
28120;1708692;
28124;1708755;
28124;1708801;
28125;1708839;
28120;1708860;
28126;1708900;
28113;1708897;
28126;1708938;
28121;1708966;
28128;1709029;
28136;1709088;
28132;1709163;
28150;1709220;
28151;1709293;
28155;1709329;
28162;1709390;
28162;1709423;
28170;1709469;
28170;1709491;
28174;1709534;
28181;1709527;
28183;1709548;
28186;1709531;
28181;1709537;
28175;1709546;
28182;1709569;
28183;1709600;
28193;1709635;
28196;1709687;
28203;1709740;
28199;1709805;
28211;1709855;
28211;1709923;
28227;1709972;
28212;1710016;
28229;1710055;
28215;1710065;
28221;1710023;
28199;1709835;
28188;1709572;
28148;1709219;
28111;1708817;
28065;1708393;
28024;1708009;
27989;1707625;
27965;1707356;
27939;1707130;
27927;1706982;
27909;1706867;
27898;1706792;
27895;1706727;
27889;1706695;
27887;1706673;
27901;1706664;
27899;1706671;
27905;1706709;
27906;1706755;
27925;1706821;
27925;1706880;
27930;1706963;
27941;1707022;
27950;1707112;
27949;1707161;
27957;1707222;
27964;1707250;
27970;1707302;
27974;1707350;
27979;1707399;
27980;1707466;
27992;1707532;
27997;1707612;
28005;1707666;
28016;1707729;
28019;1707794;
28018;1707880;
28041;1707966;
28033;1708025;
28056;1708104;
28053;1708188;
28068;1708291;
28065;1708381;
28083;1708482;
28072;1708554;
28091;1708650;
28086;1708704;
28090;1708786;
28099;1708854;
28096;1708912;
28114;1708993;
28115;1709064;
28119;1709125;
28123;1709191;
28126;1709247;
28133;1709300;
28145;1709360;
28152;1709401;
28146;1709458;
28160;1709532;
28167;1709597;
28171;1709652;
28173;1709708;
28183;1709765;
28178;1709813;
28189;1709864;
28194;1709907;
28202;1709962;
28209;1710006;
28212;1710033;
28217;1710075;
28225;1710093;
28234;1710123;
28234;1710131;
28234;1710175;
28235;1710199;
28240;1710260;
28251;1710307;
28257;1710351;
28272;1710419;
28270;1710470;
28283;1710522;
28281;1710590;
28287;1710616;
28290;1710654;
28298;1710678;
28299;1710698;
28293;1710640;
28273;1710456;
28251;1710197;
28217;1709874;
28177;1709493;
28151;1709128;
28103;1708767;
28086;1708451;
28056;1708155;
28039;1707934;
28030;1707746;
28005;1707615;
28005;1707513;
28000;1707468;
27992;1707427;
27991;1707416;
27992;1707437;
27995;1707479;
28004;1707540;
28015;1707605;
28007;1707687;
28029;1707774;
28021;1707853;
28037;1707935;
28040;1708006;
28067;1708064;
28060;1708113;
28073;1708157;
28068;1708161;
28079;1708185;
28071;1708181;
28072;1708198;
28077;1708230;
28086;1708251;
28092;1708260;
28089;1708285;
28106;1708320;
28098;1708345;
28102;1708381;
28109;1708440;
28107;1708467;
28112;1708509;
28119;1708545;
28126;1708585;
28121;1708614;
28126;1708662;
28122;1708702;
28137;1708774;
28137;1708800;
28151;1708872;
28143;1708925;
28159;1708992;
28165;1709076;
28178;1709158;
28177;1709227;
28193;1709305;
28199;1709359;
28206;1709430;
28209;1709473;
28215;1709534;
28221;1709591;
28224;1709663;
28229;1709704;
28237;1709756;
28231;1709798;
28244;1709863;
28246;1709919;
28259;1709988;
28256;1710053;
28278;1710104;
28282;1710140;
28292;1710194;
28290;1710259;
28308;1710300;
28301;1710333;
28307;1710289;
28293;1710137;
28282;1709913;
28243;1709601;
28224;1709253;
28179;1708888;
28156;1708559;
28120;1708236;
28104;1707983;
28070;1707776;
28062;1707626;
28044;1707507;
28041;1707447;
28040;1707427;
28043;1707425;
28041;1707441;
28048;1707487;
28056;1707540;
28063;1707630;
28070;1707697;
28076;1707799;
28086;1707897;
28102;1708013;
28107;1708104;
28127;1708232;
28125;1708319;
28131;1708414;
28136;1708485;
28151;1708557;
28153;1708613;
28163;1708662;
28158;1708712;
28174;1708752;
28167;1708776;
28182;1708798;
28179;1708817;
28184;1708816;
28184;1708848;
28194;1708888;
28190;1708904;
28204;1708921;
28203;1708948;
28218;1708987;
28209;1709027;
28222;1709074;
28211;1709127;
28231;1709196;
28230;1709263;
28238;1709337;
28246;1709393;
28245;1709472;
28258;1709528;
28251;1709605;
28264;1709695;
28272;1709805;
28276;1709902;
28280;1709995;
28294;1710093;
28308;1710197;
28311;1710290;
28328;1710395;
28329;1710508;
28345;1710611;
28351;1710725;
28371;1710845;
28371;1710957;
28383;1711075;
28387;1711156;
28391;1711255;
28406;1711314;
28404;1711339;
28393;1711223;
28373;1710980;
28344;1710682;
28317;1710342;
28284;1710005;
28243;1709652;
28219;1709352;
28198;1709073;
28173;1708845;
28151;1708642;
28136;1708497;
28130;1708379;
28114;1708297;
28121;1708264;
28118;1708241;
28119;1708251;
28116;1708260;
28118;1708279;
28114;1708327;
28124;1708388;
28121;1708461;
28122;1708544;
28142;1708639;
28142;1708713;
28154;1708791;
28149;1708850;
28162;1708919;
28172;1708967;
28177;1709014;
28185;1709075;
28185;1709119;
28188;1709154;
28197;1709203;
28199;1709231;
28202;1709260;
28204;1709278;
28211;1709279;
28202;1709278;
28204;1709268;
28194;1709234;
28210;1709235;
28203;1709218;
28207;1709229;
28201;1709237;
28210;1709260;
28206;1709253;
28214;1709287;
28222;1709328;
28228;1709386;
28229;1709408;
28238;1709461;
28243;1709501;
28246;1709534;
28253;1709574;
28253;1709614;
28261;1709671;
28260;1709711;
28263;1709773;
28269;1709838;
28273;1709906;
28283;1709969;
28277;1710034;
28297;1710117;
28293;1710179;
28308;1710258;
28303;1710288;
28310;1710369;
28318;1710384;
28321;1710437;
28330;1710465;
28326;1710439;
28316;1710294;
28290;1710079;
28266;1709771;
28229;1709428;
28201;1709062;
28161;1708737;
28137;1708418;
28114;1708172;
28082;1707942;
28077;1707782;
28045;1707644;
28054;1707567;
28038;1707484;
28046;1707445;
28030;1707392;
28046;1707388;
28026;1707360;
28036;1707345;
28025;1707340;
28034;1707361;
28030;1707370;
28048;1707423;
28039;1707462;
28052;1707518;
28051;1707547;
28061;1707579;
28051;1707610;
28058;1707633;
28045;1707639;
28054;1707640;
28044;1707637;
28044;1707635;
28039;1707614;
28049;1707618;
28032;1707600;
28043;1707632;
28043;1707636;
28044;1707665;
28057;1707686;
28059;1707712;
28058;1707726;
28065;1707770;
28070;1707800;
28081;1707831;
28077;1707859;
28092;1707901;
28092;1707896;
28095;1707935;
28095;1707931;
28106;1707962;
28094;1707959;
28111;1707976;
28094;1708000;
28118;1708046;
28103;1708086;
28124;1708136;
28124;1708187;
28128;1708237;
28138;1708301;
28149;1708354;
28148;1708420;
28155;1708498;
28160;1708564;
28172;1708632;
28165;1708705;
28195;1708773;
28171;1708830;
28193;1708904;
28195;1708944;
28206;1709002;
28200;1709037;
28207;1709069;
28216;1709098;
28212;1709147;
28210;1709159;
28208;1709085;
28193;1708869;
28166;1708609;
28141;1708273;
28097;1707942;
28072;1707582;
28045;1707273;
28006;1707001;
28000;1706772;
27975;1706607;
27967;1706495;
27954;1706424;
27960;1706382;
27945;1706373;
27944;1706368;
27948;1706384;
27953;1706400;
27963;1706435;
27966;1706480;
27967;1706557;
27987;1706674;
27991;1706775;
28012;1706887;
28011;1706987;
28016;1707075;
28028;1707139;
28042;1707212;
28045;1707264;
28049;1707288;
28051;1707328;
28070;1707374;
28066;1707419;
28071;1707474;
28070;1707513;
28078;1707560;
28082;1707587;
28084;1707620;
28087;1707638;
28086;1707640;
28091;1707686;
28091;1707702;
28098;1707728;
28098;1707756;
28106;1707811;
28114;1707840;
28119;1707890;
28126;1707924;
28127;1707978;
28125;1708019;
28136;1708056;
28141;1708094;
28151;1708149;
28146;1708205;
28156;1708271;
28156;1708336;
28164;1708388;
28164;1708458;
28182;1708531;
28168;1708589;
28192;1708643;
28188;1708694;
28205;1708749;
28205;1708778;
28214;1708828;
28215;1708868;
28222;1708908;
28229;1708953;
28237;1708985;
28239;1709021;
28238;1709040;
28247;1709082;
28254;1709128;
28255;1709161;
28262;1709201;
28267;1709237;
28268;1709271;
28256;1709278;
28256;1709203;
28230;1708984;
28209;1708712;
28175;1708369;
28153;1708011;
28110;1707675;
28094;1707389;
28064;1707155;
28055;1706973;
28036;1706820;
28033;1706727;
28020;1706649;
28029;1706616;
28016;1706591;
28025;1706619;
28021;1706668;
28026;1706730;
28037;1706783;
28041;1706904;
28044;1706975;
28058;1707081;
28058;1707162;
28080;1707247;
28071;1707343;
28098;1707403;
28088;1707462;
28098;1707513;
28096;1707529;
28117;1707571;
28106;1707598;
28113;1707638;
28109;1707649;
28123;1707671;
28115;1707685;
28131;1707700;
28126;1707720;
28134;1707738;
28128;1707754;
28138;1707788;
28138;1707815;
28141;1707861;
28137;1707895;
28146;1707958;
28154;1708000;
28161;1708080;
28168;1708124;
28176;1708198;
28181;1708270;
28187;1708348;
28193;1708408;
28207;1708495;
28216;1708562;
28214;1708626;
28222;1708678;
28229;1708764;
28232;1708841;
28245;1708926;
28247;1708998;
28263;1709091;
28265;1709153;
28280;1709254;
28286;1709345;
28301;1709434;
28307;1709548;
28330;1709649;
28326;1709754;
28348;1709849;
28349;1709942;
28366;1710012;
28356;1710062;
28369;1710077;
28355;1709993;
28345;1709781;
28320;1709465;
28291;1709094;
28237;1708688;
28209;1708297;
28171;1707938;
28146;1707639;
28118;1707387;
28103;1707222;
28089;1707095;
28075;1707029;
28073;1706987;
28073;1706983;
28071;1706989;
28082;1707038;
28089;1707094;
28104;1707174;
28100;1707265;
28114;1707352;
28119;1707443;
28140;1707549;
28140;1707663;
28161;1707778;
28158;1707887;
28178;1708015;
28180;1708111;
28201;1708208;
28203;1708304;
28213;1708365;
28219;1708425;
28222;1708463;
28237;1708526;
28247;1708571;
28242;1708642;
28247;1708697;
28251;1708746;
28268;1708808;
28275;1708868;
28274;1708932;
28280;1708989;
28290;1709043;
28290;1709112;
28312;1709185;
28310;1709252;
28315;1709311;
28314;1709365;
28323;1709410;
28329;1709477;
28325;1709547;
28336;1709609;
28332;1709670;
28341;1709747;
28342;1709789;
28345;1709837;
28356;1709868;
28358;1709919;
28363;1709941;
28368;1709964;
28366;1709974;
28384;1709989;
28386;1710017;
28387;1710047;
28390;1710075;
28389;1710095;
28387;1710129;
28394;1710145;
28390;1710171;
28396;1710195;
28395;1710159;
28387;1710004;
28354;1709698;
28329;1709362;
28276;1708936;
28252;1708510;
28209;1708098;
28176;1707751;
28136;1707451;
28123;1707244;
28096;1707046;
28089;1706923;
28075;1706811;
28071;1706748;
28069;1706692;
28068;1706655;
28065;1706656;
28062;1706638;
28059;1706639;
28067;1706669;
28064;1706690;
28075;1706761;
28064;1706812;
28085;1706930;
28078;1707014;
28095;1707133;
28102;1707218;
28106;1707303;
28119;1707366;
28124;1707427;
28130;1707488;
28130;1707527;
28127;1707563;
28139;1707611;
28142;1707649;
28148;1707719;
28145;1707761;
28155;1707820;
28154;1707841;
28164;1707896;
28155;1707931;
28176;1707992;
28162;1708025;
28183;1708090;
28181;1708149;
28192;1708219;
28188;1708277;
28201;1708360;
28200;1708439;
28207;1708501;
28225;1708581;
28232;1708644;
28229;1708691;
28246;1708753;
28240;1708815;
28250;1708896;
28256;1708965;
28270;1709023;
28255;1709081;
28268;1709150;
28273;1709201;
28282;1709265;
28272;1709310;
28282;1709378;
28287;1709445;
28304;1709527;
28303;1709592;
28314;1709652;
28311;1709729;
28331;1709805;
28336;1709870;
28342;1709924;
28353;1709984;
28354;1710030;
28356;1710068;
28362;1710116;
28352;1710031;
28337;1709839;
28307;1709537;
28277;1709177;
28228;1708767;
28198;1708345;
28153;1707950;
28137;1707609;
28092;1707324;
28078;1707116;
28057;1706942;
28055;1706837;
28043;1706752;
28039;1706706;
28029;1706675;
28047;1706678;
28031;1706686;
28044;1706708;
28033;1706752;
28047;1706810;
28047;1706865;
28067;1706941;
28058;1707017;
28071;1707100;
28086;1707177;
28085;1707244;
28094;1707302;
28098;1707364;
28107;1707406;
28108;1707440;
28120;1707464;
28113;1707478;
28118;1707524;
28128;1707576;
28130;1707631;
28138;1707706;
28150;1707766;
28160;1707816;
28156;1707875;
28162;1707931;
28161;1707971;
28174;1708033;
28167;1708067;
28185;1708119;
28188;1708165;
28192;1708224;
28202;1708286;
28211;1708333;
28220;1708403;
28235;1708435;
28233;1708491;
28243;1708514;
28245;1708582;
28256;1708621;
28259;1708679;
28264;1708747;
28265;1708788;
28277;1708847;
28276;1708907;
28302;1708956;
28296;1709010;
28294;1709052;
28305;1709087;
28313;1709139;
28315;1709189;
28316;1709241;
28325;1709281;
28325;1709316;
28329;1709375;
28325;1709423;
28339;1709491;
28342;1709527;
28353;1709584;
28358;1709612;
28363;1709658;
28366;1709680;
28366;1709729;
28384;1709782;
28388;1709819;
28388;1709855;
28391;1709902;
28392;1709943;
28395;1710000;
28390;1709993;
28378;1709893;
28348;1709664;
28324;1709334;
28275;1708947;
28251;1708542;
28196;1708140;
28180;1707786;
28129;1707467;
28120;1707217;
28095;1707000;
28091;1706859;
28081;1706744;
28081;1706677;
28070;1706648;
28077;1706639;
28075;1706654;
28077;1706676;
28078;1706710;
28084;1706764;
28090;1706826;
28099;1706906;
28102;1706957;
28109;1707027;
28109;1707087;
28114;1707146;
28113;1707172;
28123;1707216;
28118;1707221;
28129;1707270;
28127;1707304;
28137;1707342;
28137;1707371;
28140;1707413;
28142;1707427;
28146;1707465;
28160;1707497;
28157;1707559;
28162;1707601;
28175;1707665;
28172;1707708;
28177;1707775;
28177;1707837;
28196;1707904;
28192;1707991;
28215;1708069;
28212;1708145;
28235;1708231;
28235;1708296;
28251;1708391;
28248;1708462;
28272;1708553;
28263;1708623;
28279;1708690;
28279;1708755;
28305;1708843;
28295;1708925;
28315;1709017;
28308;1709085;
28329;1709177;
28324;1709257;
28343;1709352;
28344;1709452;
28369;1709558;
28364;1709651;
28369;1709740;
28378;1709815;
28381;1709921;
28387;1709984;
28397;1710098;
28408;1710165;
28414;1710281;
28426;1710383;
28439;1710503;
28447;1710588;
28456;1710689;
28458;1710765;
28468;1710863;
28477;1710929;
28470;1711000;
28463;1710916;
28456;1710733;
28423;1710465;
28390;1710123;
28359;1709768;
28331;1709393;
28284;1709040;
28261;1708725;
28235;1708481;
28220;1708280;
28205;1708145;
28210;1708060;
28193;1708022;
28195;1708025;
28193;1708038;
28214;1708075;
28202;1708127;
28214;1708198;
28213;1708273;
28230;1708376;
28230;1708481;
28247;1708614;
28255;1708732;
28260;1708839;
28274;1708941;
28281;1709055;
28283;1709134;
28285;1709225;
28304;1709327;
28299;1709410;
28310;1709497;
28314;1709562;
28326;1709620;
28337;1709677;
28329;1709739;
28333;1709804;
28337;1709867;
28346;1709937;
28342;1709984;
28356;1710071;
28353;1710128;
28359;1710219;
28363;1710308;
28373;1710377;
28372;1710461;
28378;1710533;
28398;1710609;
28399;1710675;
28407;1710769;
28413;1710828;
28422;1710896;
28432;1710965;
28433;1711040;
28434;1711093;
28437;1711179;
28454;1711249;
28452;1711338;
28468;1711415;
28466;1711493;
28484;1711573;
28488;1711655;
28491;1711727;
28496;1711801;
28494;1711877;
28512;1711967;
28506;1712038;
28520;1712125;
28527;1712181;
28529;1712278;
28532;1712347;
28545;1712419;
28551;1712467;
28554;1712538;
28561;1712591;
28564;1712666;
28571;1712709;
28565;1712656;
28541;1712382;
28506;1711970;
28460;1711582;
28435;1711201;
28388;1710818;
28358;1710444;
28317;1710090;
28299;1709786;
28261;1709518;
28257;1709319;
28225;1709160;
28226;1709075;
28216;1709002;
28222;1708975;
28206;1708959;
28217;1708955;
28210;1708946;
28219;1708967;
28213;1708997;
28215;1709022;
28222;1709054;
28224;1709104;
28228;1709160;
28232;1709224;
28228;1709266;
28238;1709309;
28233;1709323;
28239;1709333;
28231;1709321;
28243;1709311;
28230;1709284;
28236;1709282;
28227;1709267;
28236;1709243;
28228;1709231;
28238;1709230;
28230;1709223;
28233;1709244;
28244;1709258;
28230;1709305;
28246;1709360;
28246;1709419;
28245;1709464;
28239;1709534;
28251;1709600;
28263;1709681;
28257;1709733;
28270;1709824;
28264;1709886;
28290;1709957;
28278;1710029;
28298;1710108;
28303;1710170;
28317;1710264;
28309;1710329;
28329;1710404;
28332;1710503;
28338;1710585;
28338;1710647;
28357;1710740;
28357;1710806;
28368;1710882;
28366;1710955;
28386;1711022;
28375;1711078;
28395;1711159;
28386;1711231;
28397;1711316;
28410;1711381;
28410;1711468;
28422;1711529;
28421;1711618;
28430;1711663;
28434;1711755;
28443;1711808;
28449;1711882;
28450;1711913;
28466;1711955;
28461;1711930;
28442;1711729;
28408;1711381;
28374;1711031;
28338;1710638;
28302;1710245;
28260;1709829;
28233;1709468;
28187;1709121;
28184;1708857;
28148;1708629;
28147;1708443;
28123;1708295;
28118;1708181;
28104;1708105;
28107;1708056;
28098;1708032;
28102;1708021;
28095;1708030;
28110;1708032;
28100;1708064;
28107;1708119;
28104;1708166;
28122;1708228;
28119;1708296;
28131;1708347;
28127;1708403;
28132;1708449;
28131;1708481;
28142;1708545;
28145;1708592;
28152;1708673;
28167;1708724;
28157;1708775;
28158;1708830;
28163;1708869;
28166;1708912;
28163;1708957;
28163;1708994;
28168;1709041;
28166;1709099;
28164;1709164;
28164;1709243;
28173;1709336;
28173;1709417;
28189;1709502;
28187;1709591;
28203;1709679;
28206;1709747;
28211;1709801;
28216;1709841;
28227;1709844;
28228;1709870;
28229;1709874;
28234;1709895;
28235;1709914;
28243;1709948;
28243;1709999;
28246;1710037;
28251;1710072;
28261;1710118;
28269;1710165;
28271;1710224;
28277;1710283;
28285;1710318;
28284;1710330;
28281;1710327;
28289;1710292;
28284;1710257;
28282;1710231;
28275;1710201;
28260;1710209;
28272;1710236;
28274;1710282;
28288;1710368;
28288;1710451;
28306;1710550;
28296;1710634;
28316;1710746;
28323;1710829;
28328;1710901;
28342;1710945;
28342;1710987;
28351;1711009;
28344;1711018;
28336;1710895;
28314;1710637;
28288;1710327;
28262;1709975;
28220;1709586;
28192;1709219;
28157;1708863;
28145;1708559;
28105;1708304;
28095;1708116;
28075;1707968;
28070;1707885;
28054;1707815;
28050;1707814;
28062;1707826;
28055;1707882;
28058;1707920;
28064;1707988;
28065;1708045;
28074;1708116;
28077;1708194;
28080;1708274;
28095;1708365;
