20891;869467;
26853;1435490;
26875;1436021;
26891;1436386;
26934;1436663;
26959;1437005;
27005;1437467;
27054;1438144;
27146;1438986;
27204;1439761;
27289;1440464;
27335;1441066;
27390;1441606;
27431;1703842;
27500;1704146;
27497;1704334;
27514;1704254;
27474;1703955;
27451;1703572;
27409;1703187;
27384;1702837;
27347;1702559;
27337;1702391;
27320;1702291;
27334;1702294;
27328;1702356;
27336;1702479;
27355;1702664;
27378;1702941;
27416;1703243;
27442;1703578;
27475;1703895;
27512;1704202;
27534;1704475;
27561;1704735;
27572;1704956;
27589;1705152;
27596;1705314;
27622;1705524;
27632;1705736;
27649;1705985;
27655;1706224;
27669;1706468;
27666;1706655;
27694;1706787;
27688;1706865;
27690;1706937;
27688;1706962;
27697;1706986;
27680;1707003;
27689;1706999;
27685;1707009;
27699;1707030;
27689;1707060;
27710;1707102;
27713;1707137;
27727;1707173;
27724;1707172;
27737;1707185;
27736;1707186;
27753;1707196;
27753;1707233;
27766;1707286;
27778;1707346;
27783;1707416;
27790;1707486;
27796;1707570;
27820;1707634;
27815;1707673;
27823;1707695;
27833;1707724;
27840;1707751;
27846;1707778;
27854;1707698;
27828;1707469;
27807;1707116;
27768;1706652;
27728;1706108;
27687;1705553;
27636;1704999;
27592;1704509;
27556;1704104;
27526;1703768;
27498;1703497;
27483;1703292;
27472;1703158;
27460;1703057;
27455;1703043;
27458;1703038;
27455;1703074;
27458;1703054;
27463;1703047;
27457;1703006;
27459;1702995;
27457;1703005;
27461;1703084;
27472;1703179;
27475;1703316;
27498;1703476;
27508;1703642;
27514;1703751;
27514;1703836;
27513;1703861;
27520;1703861;
27509;1703829;
27507;1703795;
27494;1703714;
27491;1703653;
27475;1703569;
27467;1703467;
27460;1703348;
27455;1703245;
27441;1703171;
27436;1703120;
27426;1703089;
27422;1703073;
27419;1703135;
27433;1703218;
27440;1703380;
27464;1703574;
27463;1703788;
27493;1704009;
27509;1704178;
27524;1704351;
27534;1704505;
27553;1704652;
27562;1704763;
27570;1704880;
27569;1704929;
27581;1704988;
27571;1705017;
27583;1705081;
27586;1705121;
27581;1705139;
27569;1705024;
27555;1704772;
27519;1704371;
27479;1703843;
27428;1703241;
27367;1702628;
27308;1702065;
27280;1701618;
27228;1701243;
27225;1701023;
27198;1700876;
27192;1700833;
27187;1700840;
27202;1700936;
27209;1701072;
27232;1701266;
27242;1701445;
27271;1701664;
27276;1701853;
27303;1702048;
27314;1702233;
27333;1702428;
27345;1702597;
27368;1702804;
27370;1702957;
27384;1703126;
27388;1703244;
27402;1703367;
27414;1703452;
27428;1703543;
27426;1703591;
27440;1703600;
27427;1703566;
27433;1703501;
27418;1703430;
27416;1703338;
27410;1703291;
27416;1703295;
27412;1703319;
27423;1703375;
27415;1703437;
27440;1703520;
27426;1703636;
27456;1703772;
27457;1703883;
27471;1704015;
27474;1704137;
27499;1704328;
27513;1704525;
27532;1704761;
27539;1704971;
27559;1705178;
27567;1705352;
27581;1705515;
27592;1705674;
27613;1705808;
27623;1705917;
27634;1706001;
27639;1706071;
27641;1706089;
27632;1705946;
27617;1705696;
27582;1705351;
27550;1704957;
27507;1704522;
27483;1704136;
27435;1703784;
27423;1703549;
27401;1703369;
27409;1703284;
27398;1703225;
27403;1703219;
27399;1703244;
27411;1703311;
27404;1703421;
27419;1703528;
27415;1703645;
27437;1703769;
27439;1703894;
27462;1704021;
27462;1704173;
27485;1704297;
27485;1704407;
27501;1704490;
27499;1704561;
27512;1704625;
27497;1704653;
27506;1704698;
27508;1704740;
27504;1704743;
27506;1704745;
27502;1704751;
27516;1704773;
27509;1704830;
27512;1704907;
27525;1704970;
27535;1705049;
27550;1705139;
27546;1705237;
27568;1705323;
27565;1705374;
27572;1705421;
27566;1705440;
27569;1705478;
27565;1705470;
27576;1705474;
27567;1705486;
27574;1705508;
27577;1705559;
27585;1705609;
27597;1705648;
27590;1705679;
27596;1705687;
27594;1705705;
27607;1705777;
27610;1705873;
27620;1705998;
27637;1706140;
27632;1706175;
27633;1706067;
27608;1705845;
27584;1705527;
27554;1705166;
27517;1704751;
27482;1704360;
27455;1704015;
27419;1703729;
27398;1703525;
27397;1703433;
27384;1703393;
27394;1703438;
27387;1703506;
27411;1703629;
27404;1703755;
27429;1703921;
27443;1704069;
27454;1704256;
27473;1704419;
27485;1704593;
27499;1704753;
27513;1704905;
27527;1705061;
27540;1705189;
27545;1705298;
27551;1705392;
27549;1705469;
27560;1705508;
27547;1705545;
27560;1705574;
27552;1705589;
27567;1705620;
27566;1705620;
27566;1705640;
27561;1705644;
27574;1705678;
27567;1705697;
27572;1705729;
27572;1705768;
27577;1705799;
27586;1705838;
27578;1705869;
27585;1705911;
27585;1705951;
27591;1705993;
27594;1706059;
27593;1706100;
27595;1706141;
27598;1706178;
27607;1706240;
27601;1706293;
27613;1706368;
27615;1706443;
27622;1706556;
27636;1706627;
27651;1706721;
27649;1706789;
27652;1706859;
27649;1706856;
27643;1706726;
27624;1706466;
27589;1706141;
27549;1705741;
27514;1705359;
27484;1704937;
27449;1704565;
27415;1704235;
27399;1703976;
27382;1703787;
27382;1703656;
27362;1703596;
27375;1703632;
27372;1703676;
27389;1703768;
27399;1703884;
27410;1704007;
27409;1704133;
27424;1704250;
27428;1704395;
27461;1704531;
27450;1704675;
27474;1704803;
27479;1704931;
27489;1705026;
27487;1705117;
27500;1705203;
27502;1705268;
27498;1705346;
27506;1705401;
27506;1705466;
27512;1705497;
27519;1705539;
27515;1705566;
27519;1705611;
27525;1705629;
27526;1705688;
27528;1705728;
27536;1705798;
27535;1705865;
27548;1705954;
27554;1706048;
27559;1706148;
27564;1706206;
27567;1706309;
27573;1706363;
27582;1706448;
27586;1706516;
27592;1706582;
27591;1706656;
27607;1706712;
27616;1706805;
27627;1706867;
27631;1706936;
27634;1706981;
27638;1707027;
27646;1707079;
27642;1707130;
27654;1707214;
27660;1707280;
27673;1707259;
27652;1707084;
27634;1706806;
27595;1706429;
27562;1706002;
27507;1705563;
27479;1705158;
27443;1704802;
27413;1704491;
27400;1704252;
27375;1704031;
27365;1703865;
27350;1703735;
27344;1703655;
27341;1703628;
27349;1703637;
27347;1703693;
27359;1703792;
27368;1703897;
27381;1704022;
27393;1704158;
27402;1704284;
27413;1704432;
27412;1704539;
27428;1704652;
27429;1704733;
27438;1704853;
27447;1704930;
27449;1705010;
27456;1705084;
27473;1705137;
27470;1705185;
27474;1705210;
27475;1705234;
27478;1705260;
27477;1705295;
27482;1705331;
27487;1705377;
27485;1705435;
27493;1705497;
27497;1705559;
27505;1705625;
27510;1705697;
27509;1705783;
27518;1705846;
27519;1705917;
27524;1705967;
27523;1706038;
27525;1706089;
27544;1706194;
27538;1706265;
27554;1706367;
27560;1706450;
27571;1706549;
27578;1706639;
27595;1706726;
27594;1706803;
27600;1706883;
27601;1706928;
27613;1706992;
27608;1707067;
27616;1707143;
27620;1707188;
27617;1707110;
27583;1706879;
27562;1706579;
27530;1706193;
27493;1705796;
27450;1705373;
27432;1704975;
27384;1704613;
27372;1704325;
27339;1704093;
27326;1703957;
27322;1703843;
27323;1703823;
27319;1703817;
27329;1703883;
27340;1703953;
27336;1704069;
27353;1704231;
27367;1704386;
27379;1704589;
27401;1704758;
27403;1704930;
27424;1705071;
27430;1705215;
27447;1705372;
27448;1705476;
27460;1705583;
27458;1705657;
27473;1705741;
27468;1705788;
27481;1705840;
27474;1705875;
27483;1705925;
27497;1705957;
27496;1706014;
27501;1706045;
27501;1706092;
27505;1706105;
27508;1706167;
27509;1706218;
27517;1706305;
27520;1706376;
27540;1706461;
27534;1706539;
27550;1706640;
27547;1706702;
27563;1706803;
27558;1706870;
27580;1706953;
27576;1706993;
27591;1707069;
27580;1707152;
27598;1707246;
27605;1707335;
27621;1707440;
27615;1707508;
27635;1707603;
27629;1707669;
27649;1707739;
27636;1707805;
27648;1707866;
27646;1707931;
27656;1707991;
27648;1707959;
27632;1707770;
27604;1707439;
27570;1707117;
27539;1706755;
27507;1706380;
27484;1706032;
27453;1705718;
27428;1705442;
27417;1705244;
27400;1705083;
27398;1704973;
27386;1704893;
27386;1704890;
27376;1704890;
27388;1704942;
27390;1705010;
27400;1705117;
27409;1705230;
27421;1705364;
27426;1705504;
27455;1705659;
27459;1705797;
27482;1705952;
27483;1706066;
27493;1706164;
27494;1706233;
27510;1706303;
27509;1706349;
27521;1706391;
27511;1706435;
27529;1706478;
27516;1706508;
27538;1706554;
27524;1706587;
27542;1706640;
27537;1706706;
27536;1706779;
27550;1706840;
27546;1706894;
27548;1706948;
27548;1706990;
27558;1707011;
27557;1707042;
27561;1707087;
27567;1707133;
27574;1707190;
27576;1707236;
27584;1707285;
27594;1707339;
27591;1707373;
27599;1707415;
27596;1707460;
27606;1707509;
27597;1707532;
27612;1707563;
27605;1707565;
27605;1707608;
27613;1707625;
27620;1707655;
27621;1707658;
27608;1707484;
27573;1707221;
27549;1706888;
27518;1706525;
27490;1706122;
27455;1705724;
27426;1705346;
27389;1704983;
27367;1704682;
27341;1704435;
27329;1704244;
27309;1704114;
27309;1704041;
27297;1704015;
27294;1704033;
27301;1704107;
27306;1704190;
27324;1704335;
27322;1704457;
27337;1704615;
27347;1704766;
27366;1704921;
27375;1705096;
27395;1705247;
27406;1705363;
27412;1705474;
27416;1705548;
27422;1705612;
27432;1705651;
27438;1705681;
27432;1705698;
27445;1705716;
27441;1705721;
27435;1705728;
27426;1705746;
27442;1705771;
27436;1705791;
27442;1705825;
27447;1705835;
27452;1705874;
27451;1705900;
27454;1705923;
27451;1705959;
27462;1706002;
27458;1706022;
27468;1706087;
27472;1706141;
27473;1706198;
27480;1706254;
27481;1706327;
27491;1706372;
27486;1706423;
27496;1706454;
27493;1706498;
27489;1706526;
27495;1706578;
27490;1706626;
27503;1706672;
27488;1706569;
27481;1706350;
27442;1706011;
27411;1705621;
27367;1705190;
27339;1704747;
27295;1704316;
27265;1703949;
27240;1703633;
27216;1703387;
27204;1703185;
27189;1703088;
27175;1703045;
27182;1703088;
27189;1703155;
27196;1703275;
27202;1703387;
27220;1703524;
27226;1703668;
27244;1703810;
27252;1703976;
27281;1704148;
27277;1704282;
27302;1704421;
27312;1704551;
27322;1704668;
27319;1704753;
27335;1704817;
27335;1704869;
27347;1704900;
27333;1704942;
27358;1704970;
27342;1705014;
27354;1705025;
27347;1705035;
27352;1705072;
27346;1705090;
27349;1705118;
27347;1705146;
27357;1705181;
27348;1705216;
27360;1705274;
27363;1705321;
27363;1705381;
27368;1705438;
27380;1705502;
27377;1705557;
27388;1705641;
27388;1705678;
27404;1705752;
27402;1705809;
27409;1705885;
27412;1705920;
27423;1705968;
27416;1705986;
27427;1706030;
27417;1706075;
27427;1706101;
27420;1705987;
27398;1705765;
27364;1705436;
27339;1705024;
27293;1704562;
27245;1704088;
27209;1703647;
27171;1703253;
27141;1702952;
27129;1702710;
27097;1702568;
27109;1702491;
27088;1702454;
27098;1702482;
27089;1702567;
27109;1702693;
27120;1702830;
27136;1703008;
27148;1703162;
27156;1703330;
27171;1703494;
27174;1703652;
27189;1703810;
27206;1703957;
27213;1704085;
27229;1704208;
27243;1704324;
27250;1704435;
27255;1704515;
27262;1704571;
27265;1704625;
27272;1704664;
27260;1704681;
27275;1704705;
27266;1704726;
27273;1704756;
27267;1704777;
27275;1704801;
27273;1704824;
27276;1704856;
27282;1704908;
27290;1704957;
27291;1705027;
27296;1705069;
27300;1705136;
27305;1705172;
27307;1705219;
27312;1705270;
27319;1705337;
27325;1705387;
27329;1705444;
27345;1705496;
27343;1705562;
27354;1705621;
27354;1705675;
27362;1705726;
27367;1705776;
27364;1705833;
27364;1705874;
27364;1705904;
27370;1705883;
27344;1705711;
27326;1705439;
27284;1705052;
27253;1704618;
27204;1704141;
27172;1703695;
27129;1703284;
27101;1702928;
27079;1702682;
27061;1702488;
27048;1702399;
27051;1702351;
27048;1702394;
27058;1702453;
27053;1702536;
27063;1702638;
27076;1702753;
27100;1702897;
27104;1703041;
27123;1703200;
27132;1703354;
27160;1703531;
27166;1703674;
27187;1703820;
27194;1703910;
27195;1704016;
27196;1704081;
27210;1704139;
27217;1704182;
27221;1704231;
27226;1704243;
27223;1704261;
27218;1704280;
27227;1704305;
27226;1704322;
27223;1704358;
27216;1704391;
27227;1704450;
27227;1704502;
27223;1704579;
27232;1704652;
27249;1704758;
27246;1704848;
27266;1704966;
27270;1705029;
27285;1705115;
27281;1705186;
27302;1705271;
27302;1705338;
27313;1705426;
27316;1705486;
27326;1705564;
27324;1705616;
27335;1705695;
27346;1705766;
27353;1705837;
27349;1705898;
27363;1705959;
27358;1706016;
27372;1706061;
27370;1706094;
27384;1706130;
27370;1706189;
27384;1706237;
27378;1706288;
27392;1706342;
27386;1706278;
27376;1706049;
27325;1705733;
27315;1705337;
27257;1704890;
27222;1704417;
27179;1703993;
27157;1703608;
27119;1703306;
27113;1703088;
27089;1702924;
27092;1702836;
27078;1702803;
27083;1702852;
27091;1702926;
27103;1703054;
27109;1703179;
27124;1703327;
27140;1703466;
27154;1703622;
27174;1703767;
27181;1703905;
27190;1704038;
27207;1704151;
27211;1704241;
27221;1704335;
27225;1704373;
27228;1704403;
27231;1704385;
27224;1704368;
27220;1704310;
27217;1704252;
27206;1704187;
27210;1704123;
27209;1704071;
27209;1703999;
27199;1703960;
27206;1703918;
27195;1703886;
27196;1703886;
27185;1703870;
27204;1703889;
27197;1703924;
27211;1703966;
27200;1704020;
27224;1704064;
27209;1704099;
27223;1704147;
27220;1704182;
27216;1704215;
27224;1704259;
27216;1704281;
27226;1704323;
27216;1704356;
27225;1704404;
27224;1704423;
27232;1704451;
27237;1704490;
27236;1704536;
27250;1704584;
27250;1704631;
27251;1704676;
27254;1704702;
27266;1704748;
27256;1704768;
27271;1704803;
27256;1704705;
27239;1704508;
27199;1704174;
27173;1703764;
27125;1703294;
27082;1702808;
27043;1702360;
27004;1701960;
26981;1701666;
26954;1701468;
26956;1701395;
26950;1701391;
26955;1701467;
26962;1701568;
26977;1701688;
26991;1701843;
26993;1701990;
27014;1702130;
27019;1702297;
27051;1702447;
27051;1702589;
27066;1702762;
27080;1702910;
27074;1703013;
27090;1703107;
27083;1703159;
27097;1703220;
27095;1703255;
27106;1703294;
27104;1703304;
27109;1703315;
27112;1703306;
27104;1703322;
27108;1703321;
27107;1703337;
27109;1703361;
27116;1703375;
27104;1703404;
27118;1703450;
27119;1703490;
27122;1703535;
27115;1703575;
27131;1703625;
27120;1703664;
27145;1703700;
27136;1703738;
27143;1703790;
27149;1703822;
27147;1703891;
27155;1703942;
27168;1704024;
27170;1704069;
27182;1704162;
27195;1704230;
27200;1704309;
27212;1704379;
27226;1704453;
27231;1704537;
27234;1704614;
27236;1704701;
27244;1704788;
27252;1704843;
27260;1704909;
27239;1704839;
27235;1704653;
27196;1704347;
27169;1703969;
27122;1703512;
27092;1703080;
27044;1702650;
27011;1702280;
26983;1701963;
26968;1701742;
26950;1701596;
26943;1701519;
26937;1701436;
26939;1701415;
26934;1701410;
26936;1701438;
26944;1701464;
26946;1701526;
26947;1701579;
26957;1701665;
26963;1701761;
26981;1701878;
26981;1701985;
27006;1702096;
27001;1702184;
27021;1702247;
27025;1702292;
27034;1702325;
27014;1702323;
27026;1702327;
27022;1702336;
27035;1702333;
27020;1702330;
27026;1702322;
27018;1702336;
27025;1702353;
27014;1702393;
27018;1702423;
27022;1702464;
27026;1702547;
27032;1702625;
27036;1702718;
27030;1702777;
27048;1702849;
27048;1702920;
27059;1703002;
27077;1703086;
27087;1703173;
27084;1703247;
27089;1703344;
27093;1703416;
27108;1703511;
27115;1703589;
27128;1703675;
27127;1703748;
27138;1703828;
27150;1703906;
27156;1704003;
27157;1704083;
27174;1704150;
27173;1704220;
27184;1704277;
27188;1704335;
27195;1704384;
27191;1704372;
27180;1704234;
27153;1703989;
27124;1703630;
27085;1703165;
27042;1702655;
26984;1702162;
26948;1701700;
26906;1701320;
26884;1701073;
26857;1700885;
26859;1700798;
26840;1700735;
26847;1700732;
26844;1700781;
26851;1700882;
26861;1700993;
26868;1701127;
26873;1701244;
26884;1701395;
26912;1701540;
26915;1701701;
26934;1701859;
26948;1701992;
26956;1702124;
26981;1702233;
26976;1702347;
26998;1702448;
26994;1702523;
27011;1702597;
26999;1702641;
27017;1702696;
27007;1702743;
27023;1702797;
27027;1702832;
27034;1702897;
27037;1702969;
27043;1703013;
27050;1703086;
27058;1703143;
27069;1703236;
27067;1703311;
27080;1703409;
27096;1703487;
27088;1703558;
27100;1703621;
27106;1703700;
27114;1703758;
27122;1703816;
27133;1703862;
27127;1703921;
27132;1703985;
27137;1704057;
27143;1704125;
27145;1704178;
27141;1704242;
27157;1704315;
27151;1704384;
27168;1704461;
27166;1704509;
27180;1704577;
27178;1704634;
27185;1704687;
27200;1704741;
27204;1704814;
27206;1704848;
27213;1704906;
27219;1704948;
27219;1705011;
27231;1705071;
27233;1705077;
27214;1704926;
27193;1704653;
27151;1704281;
27114;1703830;
27061;1703341;
27022;1702863;
26967;1702413;
26948;1702015;
26914;1701704;
26895;1701517;
26890;1701413;
26880;1701387;
26885;1701414;
26886;1701489;
26898;1701592;
26910;1701743;
26931;1701909;
26938;1702087;
26962;1702277;
26975;1702476;
26991;1702647;
27005;1702822;
27013;1702986;
27035;1703148;
27039;1703288;
27056;1703410;
27067;1703494;
27073;1703567;
27066;1703607;
27076;1703649;
27083;1703678;
27091;1703725;
27095;1703743;
27089;1703779;
27096;1703795;
27098;1703826;
27104;1703837;
27111;1703875;
27100;1703901;
27101;1703967;
27113;1703996;
27119;1704036;
27114;1704072;
27130;1704132;
27116;1704187;
27140;1704244;
27137;1704295;
27154;1704357;
27148;1704428;
27164;1704481;
27168;1704535;
27180;1704595;
27175;1704663;
27183;1704701;
27182;1704758;
27206;1704824;
27192;1704885;
27211;1704963;
27209;1705045;
27227;1705117;
27226;1705171;
27237;1705243;
27236;1705298;
27241;1705367;
27241;1705427;
27249;1705495;
27257;1705563;
27263;1705643;
27268;1705660;
27261;1705554;
27237;1705308;
27203;1704985;
27174;1704594;
27135;1704168;
27092;1703709;
27054;1703294;
27013;1702918;
26984;1702641;
26962;1702406;
26954;1702276;
26937;1702187;
26942;1702203;
26933;1702243;
26951;1702349;
26960;1702479;
26982;1702641;
26996;1702821;
27015;1703003;
27029;1703202;
27054;1703399;
27064;1703623;
27098;1703851;
27111;1704043;
27130;1704215;
27129;1704359;
27152;1704486;
27154;1704554;
27168;1704628;
27166;1704675;
27170;1704721;
27172;1704743;
27165;1704757;
27175;1704804;
27174;1704828;
27183;1704869;
27180;1704920;
27190;1704969;
27201;1705048;
27206;1705138;
27218;1705212;
27220;1705299;
27228;1705376;
27231;1705446;
27249;1705522;
27252;1705603;
27264;1705677;
27261;1705736;
27274;1705813;
27278;1705854;
27287;1705903;
27285;1705924;
27292;1705953;
27297;1705990;
27300;1706003;
27305;1706037;
27312;1706060;
27316;1706089;
27315;1706123;
27313;1706168;
27323;1706206;
27335;1706265;
27336;1706307;
27336;1706351;
27352;1706417;
27339;1706450;
27350;1706418;
27330;1706234;
27292;1705935;
27261;1705581;
27219;1705169;
27186;1704760;
27140;1704338;
27105;1703966;
27076;1703636;
27059;1703429;
27037;1703246;
27031;1703175;
27031;1703104;
27030;1703107;
27042;1703117;
27042;1703204;
27050;1703291;
27063;1703407;
27082;1703552;
27089;1703703;
27110;1703896;
27121;1704074;
27137;1704237;
27151;1704399;
27155;1704530;
27176;1704657;
27178;1704752;
27200;1704835;
27189;1704889;
27209;1704947;
27203;1704974;
27209;1705024;
27208;1705055;
27220;1705082;
27211;1705108;
27223;1705157;
27220;1705200;
27228;1705241;
27229;1705270;
27227;1705324;
27236;1705403;
27242;1705468;
27241;1705542;
27252;1705618;
27251;1705702;
27260;1705795;
27267;1705874;
27274;1705962;
27277;1706046;
27296;1706131;
27294;1706200;
27305;1706301;
27304;1706359;
27321;1706431;
27331;1706485;
27325;1706563;
27341;1706629;
27352;1706736;
27352;1706797;
27357;1706876;
27362;1706946;
27376;1707032;
27371;1707089;
27383;1707158;
27388;1707215;
27398;1707301;
27397;1707371;
27419;1707457;
27410;1707463;
27403;1707270;
27359;1706922;
27320;1706488;
27269;1706045;
27250;1705611;
27198;1705212;
27174;1704833;
27127;1704498;
27120;1704244;
27092;1704050;
27086;1703903;
27073;1703798;
27068;1703748;
27057;1703735;
27065;1703787;
27055;1703827;
27066;1703913;
27080;1704011;
27086;1704118;
27102;1704231;
27109;1704396;
27127;1704525;
27137;1704681;
27155;1704812;
27171;1704935;
27177;1705032;
27193;1705126;
27192;1705180;
27199;1705218;
27198;1705228;
27189;1705254;
27199;1705264;
27203;1705278;
27206;1705302;
27208;1705309;
27203;1705319;
27215;1705337;
27214;1705376;
27222;1705411;
27219;1705444;
27242;1705485;
27235;1705533;
27245;1705586;
27239;1705628;
27260;1705688;
27253;1705746;
27268;1705797;
27262;1705861;
27283;1705944;
27269;1706025;
27286;1706074;
27281;1706158;
27298;1706214;
27297;1706266;
27293;1706330;
27307;1706384;
27300;1706442;
27319;1706524;
27320;1706614;
27321;1706678;
27335;1706730;
27333;1706786;
27342;1706850;
27355;1706916;
27358;1706980;
27363;1707025;
27362;1707092;
27360;1707156;
27379;1707223;
27369;1707268;
27372;1707281;
27359;1707121;
27328;1706783;
27293;1706366;
27254;1705937;
27208;1705504;
27176;1705076;
27136;1704691;
27104;1704324;
27077;1704057;
27053;1703836;
27037;1703675;
27030;1703572;
27016;1703524;
27028;1703527;
27028;1703558;
27032;1703632;
27041;1703732;
27050;1703846;
27061;1703986;
27070;1704123;
27085;1704310;
27100;1704485;
27118;1704663;
27132;1704833;
27142;1704984;
27150;1705110;
27165;1705211;
27164;1705294;
27167;1705370;
27177;1705444;
27185;1705486;
27193;1705531;
27194;1705581;
27198;1705608;
27197;1705640;
27194;1705695;
27204;1705760;
27209;1705825;
27216;1705893;
27213;1705943;
27227;1706012;
27224;1706091;
27252;1706170;
27250;1706255;
27256;1706325;
27255;1706397;
27272;1706474;
27276;1706540;
27283;1706630;
27292;1706725;
27304;1706810;
27308;1706884;
27319;1706959;
27324;1707040;
27333;1707113;
27339;1707196;
27351;1707266;
27356;1707351;
27370;1707427;
27362;1707487;
27369;1707560;
27370;1707624;
27380;1707702;
27379;1707737;
27383;1707810;
27388;1707855;
27402;1707928;
27403;1707995;
27415;1708079;
27410;1708090;
27413;1707961;
27380;1707619;
27332;1707184;
27288;1706719;
27239;1706307;
27207;1705940;
27174;1705674;
27147;1705452;
27131;1705320;
27122;1705208;
27121;1705205;
27107;1705242;
27121;1705334;
27137;1705449;
27160;1705595;
27165;1705739;
27189;1705905;
27200;1706071;
27217;1706244;
27228;1706410;
27255;1706601;
27270;1706789;
27299;1706950;
27303;1707072;
27331;1707191;
27330;1707271;
27342;1707311;
27330;1707338;
27348;1707360;
27337;1707322;
27334;1707309;
27339;1707257;
27331;1707236;
27332;1707185;
27331;1707157;
27334;1707108;
27335;1707103;
27338;1707081;
27339;1707086;
27336;1707087;
27349;1707110;
27347;1707123;
27351;1707151;
27351;1707166;
27365;1707227;
27359;1707255;
27367;1707319;
27361;1707354;
27383;1707420;
27372;1707447;
27382;1707521;
27385;1707575;
27398;1707644;
27400;1707713;
27407;1707778;
27411;1707857;
27423;1707929;
27423;1708014;
27432;1708086;
27433;1708173;
27450;1708253;
27442;1708326;
27466;1708423;
27456;1708504;
27480;1708583;
27462;1708589;
27460;1708453;
27413;1708127;
27372;1707703;
27334;1707268;
27293;1706884;
27253;1706492;
27221;1706166;
27197;1705879;
27173;1705633;
27152;1705448;
27139;1705316;
27139;1705272;
27131;1705255;
27129;1705277;
27149;1705341;
27144;1705412;
27165;1705510;
27161;1705635;
27183;1705781;
27187;1705935;
27210;1706104;
27228;1706281;
27240;1706445;
27253;1706596;
27271;1706728;
27279;1706828;
27283;1706897;
27291;1706960;
27295;1706992;
27295;1707017;
27299;1707030;
27298;1707044;
27310;1707051;
27298;1707078;
27309;1707110;
27305;1707124;
27320;1707176;
27317;1707225;
27324;1707281;
27329;1707355;
27337;1707431;
27343;1707514;
27342;1707582;
27346;1707640;
27347;1707724;
27364;1707807;
27365;1707861;
27377;1707925;
27378;1707986;
27389;1708064;
27397;1708131;
27409;1708196;
27406;1708255;
27418;1708322;
27425;1708370;
27418;1708442;
27433;1708502;
27439;1708571;
27447;1708630;
27444;1708704;
27447;1708749;
27460;1708786;
27451;1708839;
27469;1708898;
27464;1708946;
27474;1708900;
27443;1708682;
27421;1708291;
27358;1707782;
27322;1707270;
27273;1706828;
27243;1706437;
27203;1706058;
27171;1705723;
27153;1705461;
27138;1705263;
27120;1705118;
27115;1705048;
27102;1705012;
27110;1705029;
27098;1705068;
27115;1705130;
27113;1705197;
27124;1705270;
27126;1705349;
27150;1705487;
27152;1705589;
27174;1705751;
27173;1705872;
27192;1705995;
27199;1706090;
27214;1706184;
27212;1706255;
27231;1706321;
27228;1706343;
27229;1706395;
27235;1706419;
27232;1706452;
27233;1706471;
27235;1706512;
27231;1706530;
27246;1706588;
27239;1706638;
27263;1706677;
27243;1706741;
27266;1706780;
27269;1706835;
27277;1706904;
27280;1706969;
27296;1707051;
27288;1707133;
27307;1707196;
27300;1707270;
27324;1707331;
27312;1707400;
27332;1707470;
27332;1707542;
27336;1707614;
27341;1707687;
27345;1707773;
27353;1707844;
27359;1707923;
27368;1707988;
27367;1708068;
27379;1708137;
27388;1708224;
27393;1708296;
27399;1708360;
27408;1708419;
27417;1708483;
27419;1708536;
27424;1708599;
27422;1708644;
27431;1708621;
27405;1708386;
27372;1708003;
27323;1707505;
27278;1707037;
27229;1706615;
27206;1706263;
27165;1705934;
27148;1705643;
27126;1705404;
27109;1705226;
27094;1705118;
27097;1705059;
27088;1705042;
27089;1705060;
27088;1705088;
27099;1705156;
27103;1705239;
27116;1705329;
27120;1705417;
27141;1705549;
27142;1705666;
27163;1705803;
27169;1705937;
27185;1706078;
27189;1706190;
27194;1706292;
27208;1706378;
27207;1706455;
27218;1706520;
27214;1706553;
27221;1706600;
27224;1706618;
27232;1706643;
27230;1706666;
27241;1706713;
27235;1706728;
27238;1706759;
27249;1706809;
27250;1706842;
27266;1706894;
27260;1706914;
27265;1706944;
27264;1706960;
27268;1706990;
27264;1706989;
27266;1707015;
27270;1707032;
27277;1707069;
27281;1707125;
27286;1707164;
27293;1707246;
27302;1707302;
27305;1707366;
27319;1707420;
27316;1707486;
27322;1707559;
27328;1707633;
27342;1707719;
27342;1707794;
27362;1707891;
27359;1707966;
27373;1708044;
27378;1708110;
27382;1708168;
27389;1708244;
27380;1708304;
27394;1708385;
27387;1708444;
27404;1708531;
27399;1708575;
27407;1708610;
27400;1708475;
27369;1708194;
27333;1707744;
27290;1707271;
27246;1706826;
27208;1706463;
27181;1706127;
27147;1705841;
27130;1705594;
27111;1705408;
27097;1705291;
27091;1705226;
27094;1705195;
27099;1705230;
27092;1705282;
27113;1705363;
27106;1705460;
27124;1705574;
27130;1705686;
27151;1705820;
27158;1705953;
27168;1706103;
27183;1706237;
27195;1706355;
27203;1706441;
27210;1706531;
27224;1706609;
27224;1706648;
27227;1706697;
27228;1706713;
27227;1706732;
27237;1706752;
27227;1706760;
27228;1706780;
27231;1706811;
27236;1706853;
27228;1706870;
27243;1706933;
27236;1706973;
27251;1707056;
27253;1707122;
27273;1707216;
27266;1707287;
27289;1707371;
27286;1707433;
27299;1707496;
27292;1707566;
27315;1707661;
27317;1707740;
27325;1707822;
27328;1707875;
27334;1707941;
27324;1707980;
27345;1708058;
27351;1708114;
27353;1708192;
27354;1708260;
27373;1708323;
27371;1708380;
27384;1708445;
27374;1708504;
27401;1708569;
27387;1708638;
27405;1708694;
27404;1708740;
27422;1708794;
27410;1708865;
27424;1708938;
27420;1708889;
27403;1708683;
27367;1708325;
27331;1707882;
27272;1707390;
27233;1706967;
27197;1706644;
27171;1706343;
27147;1706115;
27144;1705951;
27120;1705820;
27115;1705773;
27120;1705761;
27127;1705794;
27133;1705855;
27141;1705938;
27147;1706035;
27158;1706174;
27165;1706278;
27182;1706415;
27191;1706560;
27208;1706725;
27220;1706875;
27232;1707012;
27237;1707120;
27260;1707207;
27250;1707267;
27268;1707316;
27269;1707344;
27267;1707357;
27266;1707371;
27275;1707386;
27269;1707383;
27277;1707399;
27266;1707415;
27290;1707439;
27276;1707461;
27299;1707505;
27287;1707534;
27295;1707596;
27295;1707648;
27306;1707715;
27307;1707775;
27303;1707839;
27323;1707911;
27314;1707981;
27326;1708051;
27326;1708130;
27337;1708212;
27342;1708260;
27354;1708335;
27353;1708411;
27364;1708461;
27382;1708524;
27372;1708590;
27387;1708664;
27393;1708724;
27400;1708780;
27400;1708815;
27410;1708875;
27405;1708921;
27414;1708976;
27414;1709030;
27414;1709057;
27415;1709102;
27432;1709145;
27432;1709187;
27443;1709229;
27433;1709190;
27410;1708961;
27377;1708585;
27333;1708109;
27286;1707592;
27252;1707133;
27204;1706764;
27189;1706453;
27161;1706207;
27149;1705995;
27128;1705843;
27119;1705751;
27118;1705705;
27109;1705682;
27115;1705722;
27109;1705763;
27116;1705839;
27119;1705901;
27135;1706000;
27142;1706094;
27151;1706209;
27163;1706344;
27178;1706464;
27184;1706596;
27199;1706721;
27211;1706813;
27212;1706894;
27228;1706959;
27223;1707008;
27231;1707045;
27226;1707059;
27226;1707077;
27233;1707098;
27231;1707095;
27239;1707112;
27227;1707149;
27242;1707171;
27225;1707201;
27244;1707267;
27242;1707332;
27251;1707427;
27253;1707521;
27263;1707626;
27282;1707724;
27282;1707827;
27288;1707939;
27302;1708068;
27300;1708187;
27322;1708336;
27329;1708500;
27343;1708659;
27349;1708826;
27358;1708991;
27368;1709140;
27380;1709266;
27374;1709381;
27393;1709464;
27394;1709551;
27398;1709627;
27409;1709692;
27418;1709765;
27430;1709799;
27438;1709853;
27435;1709885;
27449;1709944;
27450;1709970;
27453;1710011;
27460;1710034;
27459;1710077;
27465;1710067;
27471;1710088;
27468;1710081;
27473;1710041;
27456;1709894;
27440;1709563;
27395;1709028;
27348;1708379;
27275;1707666;
27220;1707031;
27172;1706505;
27142;1706029;
27092;1705606;
27075;1705224;
27041;1704940;
27027;1704718;
27013;1704564;
27012;1704470;
26994;1704406;
27005;1704392;
26993;1704367;
27000;1704380;
26997;1704376;
26997;1704401;
26991;1704448;
27003;1704519;
27012;1704571;
27019;1704669;
27026;1704748;
27030;1704840;
27034;1704919;
27051;1705005;
27058;1705085;
27064;1705185;
27072;1705262;
27088;1705351;
27097;1705434;
27101;1705534;
27103;1705618;
27118;1705727;
27128;1705794;
27132;1705876;
27134;1705921;
27138;1705991;
27145;1706037;
27153;1706075;
27153;1706124;
27164;1706172;
27163;1706236;
27175;1706299;
27178;1706379;
27188;1706460;
27190;1706531;
27209;1706613;
27207;1706679;
27220;1706748;
27213;1706808;
27234;1706863;
27228;1706923;
27243;1706992;
27239;1707017;
27251;1707093;
27249;1707137;
27250;1707189;
27254;1707233;
27244;1707268;
27260;1707305;
27260;1707355;
27263;1707420;
27270;1707501;
27284;1707592;
27290;1707655;
27291;1707731;
27297;1707774;
27296;1707833;
27306;1707917;
27310;1707991;
27323;1708081;
27322;1708155;
27340;1708226;
27337;1708280;
27346;1708344;
27345;1708396;
27356;1708451;
27355;1708512;
27362;1708549;
27371;1708610;
27374;1708656;
27380;1708719;
27384;1708743;
27384;1708789;
27390;1708843;
27396;1708883;
27399;1708933;
27400;1708926;
27387;1708731;
27353;1708340;
27307;1707845;
27254;1707292;
27203;1706796;
27169;1706382;
27131;1706023;
27117;1705714;
27075;1705437;
27063;1705239;
27047;1705080;
27038;1704986;
27031;1704912;
27026;1704904;
27041;1704896;
27031;1704935;
27031;1704963;
27046;1705003;
