21146;869379;
27586;1705911;
27579;1708794;
27577;1708776;
27565;1708759;
27573;1708754;
27554;1708740;
27569;1708751;
27563;1708745;
27564;1708748;
27556;1708756;
27552;1708765;
27552;1708784;
27550;1708774;
27550;1708795;
27543;1708806;
27556;1708810;
27547;1708806;
27554;1708814;
27550;1708808;
27552;1708794;
27555;1708788;
27556;1708789;
27549;1708774;
27549;1708775;
27541;1708769;
27554;1708755;
27546;1708746;
27539;1708731;
27545;1708721;
27532;1708702;
27531;1708671;
27535;1708666;
27532;1708652;
27532;1708666;
27536;1708665;
27538;1708682;
27535;1708671;
27536;1708678;
27524;1708664;
27537;1708670;
27528;1708687;
27537;1708709;
27535;1708727;
27539;1708721;
27544;1708742;
27545;1708745;
27537;1708763;
27542;1708792;
27551;1708806;
27545;1708812;
27554;1708830;
27556;1708831;
27546;1708824;
27555;1708833;
27545;1708833;
27539;1708829;
27540;1708815;
27541;1708823;
27536;1708809;
27536;1708815;
27531;1708803;
27540;1708801;
27536;1708809;
27541;1708831;
27542;1708824;
27546;1708825;
27546;1708818;
27539;1708839;
27539;1708834;
27542;1708856;
27531;1708831;
27538;1708849;
27537;1708837;
27540;1708837;
27535;1708847;
27542;1708848;
27535;1708850;
27542;1708852;
27529;1708854;
27548;1708857;
27542;1708870;
27549;1708874;
27550;1708878;
27546;1708890;
27547;1708888;
27553;1708891;
27546;1708887;
27559;1708894;
27542;1708897;
27565;1708913;
27550;1708921;
27571;1708923;
27557;1708920;
27556;1708923;
27552;1708908;
27555;1708908;
27551;1708893;
27554;1708901;
27549;1708892;
27550;1708891;
27550;1708885;
27547;1708896;
27549;1708886;
27545;1708897;
27540;1708897;
27560;1708895;
27555;1708895;
27555;1708904;
27558;1708901;
27568;1708912;
27553;1708903;
27558;1708932;
27549;1708921;
27564;1708923;
27549;1708920;
27552;1708925;
27551;1708921;
27552;1708915;
27558;1708919;
27558;1708912;
27550;1708920;
27562;1708922;
27548;1708922;
27562;1708914;
27554;1708929;
27556;1708926;
27555;1708925;
27565;1708914;
27548;1708915;
27566;1708921;
27551;1708911;
27563;1708904;
27545;1708904;
27553;1708909;
27545;1708898;
27554;1708899;
27547;1708899;
27546;1708897;
27544;1708874;
27540;1708857;
27545;1708836;
27546;1708812;
27537;1708790;
27536;1708767;
27544;1708772;
27539;1708774;
27544;1708768;
27556;1708784;
27549;1708806;
27544;1708816;
27549;1708821;
27547;1708826;
27547;1708831;
27554;1708857;
27542;1708853;
27546;1708862;
27552;1708854;
27552;1708859;
27543;1708847;
27537;1708848;
27543;1708850;
27545;1708858;
27549;1708854;
27546;1708847;
27539;1708859;
27550;1708858;
27549;1708858;
27549;1708850;
27546;1708855;
27555;1708853;
27546;1708853;
27546;1708856;
27543;1708842;
27546;1708863;
27536;1708852;
27550;1708849;
27544;1708871;
27547;1708868;
27549;1708862;
27537;1708865;
27544;1708871;
27538;1708870;
27546;1708882;
27532;1708867;
27541;1708876;
27533;1708878;
27536;1708887;
27537;1708873;
27540;1708890;
27544;1708893;
27540;1708893;
27538;1708888;
27539;1708894;
27535;1708898;
27536;1708897;
27544;1708908;
27548;1708895;
27542;1708894;
27540;1708902;
27527;1708889;
27539;1708903;
27532;1708896;
27540;1708904;
27531;1708886;
27544;1708897;
27534;1708894;
27545;1708897;
27544;1708889;
27544;1708901;
27535;1708899;
27545;1708903;
27544;1708900;
27544;1708920;
27546;1708905;
27545;1708911;
27548;1708910;
27545;1708917;
27549;1708904;
27545;1708909;
27534;1708915;
27541;1708902;
27533;1708906;
27532;1708907;
27535;1708896;
27540;1708909;
27527;1708898;
27533;1708915;
27526;1708901;
27533;1708911;
27527;1708898;
27536;1708921;
27532;1708906;
27532;1708911;
27528;1708908;
27530;1708909;
27533;1708905;
27538;1708916;
27530;1708890;
27534;1708900;
27534;1708873;
27533;1708863;
27523;1708861;
27535;1708837;
27524;1708822;
27531;1708824;
27517;1708810;
27534;1708818;
27528;1708822;
27536;1708829;
27519;1708840;
27533;1708844;
27526;1708835;
27537;1708858;
27523;1708866;
27540;1708865;
27523;1708875;
27536;1708877;
27523;1708863;
27529;1708871;
27523;1708862;
27538;1708864;
27520;1708874;
27530;1708880;
27525;1708866;
27520;1708877;
27517;1708873;
27511;1708879;
27514;1708870;
27514;1708882;
27516;1708884;
27518;1708887;
27522;1708871;
27518;1708883;
27518;1708875;
27516;1708887;
27521;1708879;
27524;1708894;
27526;1708873;
27530;1708901;
27526;1708888;
27525;1708906;
27521;1708892;
27515;1708901;
27514;1708899;
27524;1708902;
27516;1708901;
27525;1708904;
27522;1708889;
27523;1708894;
27522;1708891;
27521;1708881;
27514;1708875;
27518;1708875;
27520;1708875;
27519;1708883;
27512;1708877;
27520;1708883;
27511;1708888;
27518;1708894;
27505;1708891;
27523;1708883;
27510;1708893;
27518;1708885;
27515;1708883;
27506;1708895;
27503;1708892;
27507;1708889;
27509;1708889;
27507;1708896;
27506;1708916;
27503;1708925;
27514;1708937;
27521;1708930;
27515;1708940;
27522;1708931;
27518;1708946;
27519;1708947;
27516;1708948;
27529;1708960;
27524;1708942;
27527;1708970;
27517;1708967;
27523;1708987;
27518;1708972;
27520;1708972;
27524;1708975;
27526;1708979;
27527;1708969;
27528;1708973;
27528;1708987;
27526;1708964;
27525;1708962;
27522;1708951;
27521;1708944;
27528;1708929;
27518;1708922;
27527;1708902;
27521;1708879;
27526;1708864;
27509;1708849;
27525;1708857;
27515;1708868;
27524;1708873;
27514;1708888;
27516;1708887;
27510;1708891;
27513;1708890;
27514;1708902;
27507;1708898;
27522;1708914;
27511;1708905;
27510;1708917;
27512;1708906;
27506;1708921;
27506;1708900;
27518;1708916;
27508;1708906;
27505;1708895;
27509;1708916;
27508;1708913;
27515;1708913;
27516;1708914;
27507;1708927;
27506;1708928;
27515;1708932;
27508;1708937;
27507;1708939;
27519;1708945;
27510;1708934;
27523;1708947;
27509;1708930;
27518;1708937;
27505;1708931;
27515;1708952;
27512;1708940;
27523;1708945;
27515;1708939;
27518;1708962;
27525;1708957;
27520;1708968;
27523;1708959;
27525;1708990;
27533;1708982;
27527;1708976;
27526;1708985;
27527;1708989;
27523;1708987;
27531;1709009;
27517;1708992;
27520;1708997;
27518;1708982;
27524;1708986;
27508;1708983;
27520;1708991;
27514;1708986;
27516;1709000;
27519;1708992;
27523;1709002;
27513;1709000;
27515;1709013;
27517;1709004;
27526;1709007;
27515;1709003;
27529;1709012;
27521;1709005;
27519;1709017;
27524;1709005;
27522;1709008;
27510;1708985;
27520;1709002;
27513;1708995;
27521;1708997;
27509;1708980;
27527;1708984;
27506;1708984;
27517;1708994;
27514;1708992;
27517;1708978;
27511;1708981;
27523;1708984;
27510;1708993;
27526;1709013;
27522;1709011;
27533;1709014;
27521;1709014;
27530;1709016;
27520;1709017;
27529;1709022;
27510;1709016;
27522;1709026;
27518;1709015;
27518;1709014;
27519;1709011;
27514;1709010;
27513;1708986;
27512;1709001;
27509;1708980;
27519;1708958;
27516;1708928;
27512;1708906;
27516;1708893;
27517;1708899;
27518;1708899;
27515;1708942;
27522;1708948;
27525;1708959;
27512;1708967;
27525;1708973;
27515;1708966;
27521;1708983;
27512;1708967;
27521;1708974;
27504;1708978;
27521;1708977;
27512;1708981;
27524;1708984;
27513;1708984;
27519;1708975;
27521;1708988;
27520;1708984;
27518;1708991;
27517;1708987;
27521;1708996;
27528;1708998;
27508;1708989;
27528;1709002;
27517;1708999;
27528;1709000;
27517;1709008;
27528;1709003;
27515;1709008;
27532;1709020;
27521;1709016;
27518;1709026;
27516;1709021;
27516;1709025;
27521;1709029;
27514;1709027;
27525;1709034;
27517;1709037;
27514;1709034;
27525;1709052;
27523;1709044;
27522;1709049;
27518;1709041;
27530;1709044;
27525;1709050;
27523;1709042;
27521;1709041;
27523;1709055;
27522;1709058;
27522;1709067;
27511;1709062;
27521;1709064;
27522;1709059;
27520;1709079;
27522;1709076;
27527;1709078;
27520;1709077;
27518;1709059;
27521;1709082;
27524;1709072;
27521;1709090;
27527;1709075;
27522;1709067;
27526;1709071;
27522;1709079;
27530;1709076;
27527;1709075;
27534;1709072;
27523;1709071;
27531;1709069;
27526;1709077;
27523;1709073;
27525;1709071;
27525;1709078;
27531;1709081;
27523;1709077;
27522;1709084;
27505;1709071;
27515;1709095;
27515;1709087;
27512;1709103;
27512;1709089;
27508;1709089;
27521;1709075;
27520;1709085;
27516;1709087;
27521;1709090;
27524;1709102;
27520;1709103;
27516;1709105;
27522;1709105;
27515;1709115;
27526;1709102;
27518;1709106;
27513;1709116;
27518;1709104;
27521;1709101;
27502;1709083;
27518;1709089;
27514;1709072;
27525;1709072;
27511;1709041;
27518;1709051;
27517;1709006;
27511;1708982;
27510;1708944;
27507;1708929;
27506;1708914;
27507;1708922;
27516;1708937;
27517;1708933;
27507;1708944;
27512;1708955;
27513;1708956;
27518;1708976;
27506;1708979;
27515;1708999;
27502;1708999;
27509;1709002;
27498;1708992;
27504;1709009;
27496;1708994;
27502;1709021;
27500;1709003;
27503;1709021;
27502;1709006;
27508;1709019;
27500;1709027;
27515;1709030;
27504;1709014;
27505;1709011;
27513;1709018;
27506;1709022;
27504;1709007;
27507;1709009;
27508;1709004;
27504;1709012;
27499;1708998;
27505;1709003;
27490;1708997;
27501;1708996;
27488;1708974;
27503;1708989;
27493;1708978;
27504;1708991;
27503;1708987;
27498;1709005;
27496;1709004;
27505;1709010;
27500;1709020;
27507;1709002;
27499;1709009;
27505;1709025;
27497;1709024;
27509;1709025;
27498;1709018;
27504;1709027;
27494;1709015;
27505;1709023;
27498;1709020;
27497;1709023;
27493;1709014;
27495;1709033;
27488;1709027;
27497;1709048;
27498;1709043;
27489;1709045;
27495;1709033;
27493;1709044;
27493;1709041;
27502;1709048;
27495;1709040;
27502;1709048;
27506;1709040;
27503;1709053;
27499;1709058;
27505;1709073;
27499;1709058;
27501;1709068;
27496;1709067;
27497;1709062;
27488;1709062;
27502;1709051;
27492;1709060;
27501;1709074;
27489;1709072;
27495;1709060;
27502;1709071;
27494;1709061;
27498;1709069;
27503;1709077;
27497;1709064;
27498;1709069;
27496;1709081;
27507;1709078;
27499;1709085;
27513;1709093;
27500;1709093;
27509;1709109;
27506;1709093;
27515;1709101;
27500;1709085;
27511;1709081;
27498;1709060;
27495;1709053;
27491;1709035;
27487;1709041;
27484;1709018;
27492;1708993;
27484;1708974;
27482;1708955;
27483;1708951;
27492;1708946;
27488;1708943;
27487;1708941;
27488;1708948;
27488;1708955;
27482;1708948;
27491;1708973;
27481;1708979;
27488;1708983;
27483;1708977;
27480;1708984;
27484;1708984;
27482;1708997;
27482;1708990;
27480;1708992;
27480;1709008;
27491;1709020;
27489;1709035;
27498;1709039;
27497;1709047;
27501;1709036;
27494;1709063;
27499;1709041;
27498;1709060;
27497;1709060;
27492;1709067;
27497;1709079;
27500;1709077;
27509;1709077;
27498;1709071;
27504;1709071;
27505;1709070;
27505;1709078;
27495;1709079;
27500;1709094;
27499;1709099;
27497;1709084;
27497;1709102;
27489;1709101;
27506;1709101;
27500;1709105;
27503;1709113;
27503;1709113;
27507;1709118;
27504;1709112;
27505;1709121;
27510;1709125;
27507;1709131;
27508;1709116;
27506;1709123;
27513;1709127;
27501;1709125;
27510;1709123;
27514;1709134;
27501;1709123;
27506;1709127;
27507;1709136;
27504;1709130;
27499;1709124;
27515;1709135;
27501;1709135;
27516;1709138;
27505;1709128;
27512;1709139;
27512;1709136;
27509;1709131;
27517;1709133;
27519;1709153;
27516;1709150;
27518;1709167;
27509;1709161;
27507;1709160;
27512;1709162;
27516;1709161;
27509;1709157;
27523;1709165;
27515;1709169;
27514;1709177;
27509;1709155;
27518;1709160;
27505;1709145;
27509;1709156;
27506;1709157;
27511;1709167;
27505;1709145;
27500;1709154;
27508;1709136;
27515;1709144;
27519;1709117;
27511;1709127;
27514;1709085;
27516;1709075;
27504;1709056;
27503;1709070;
27506;1709061;
27511;1709076;
27502;1709080;
27504;1709103;
27509;1709093;
27521;1709104;
27505;1709095;
27516;1709103;
27500;1709090;
27516;1709111;
27509;1709105;
27509;1709095;
27511;1709106;
27521;1709117;
27509;1709112;
27519;1709128;
27511;1709133;
27517;1709135;
27508;1709143;
27522;1709161;
27511;1709153;
27521;1709150;
27520;1709152;
27523;1709158;
27517;1709150;
27528;1709160;
27517;1709148;
27517;1709157;
27515;1709147;
27520;1709160;
27511;1709149;
27512;1709149;
27516;1709163;
27517;1709172;
27509;1709167;
27523;1709172;
27517;1709181;
27521;1709192;
27522;1709199;
27529;1709202;
27521;1709195;
27530;1709213;
27518;1709207;
27521;1709226;
27515;1709211;
27528;1709218;
27521;1709209;
27533;1709211;
27518;1709203;
27527;1709209;
27511;1709197;
27517;1709202;
27525;1709206;
27528;1709207;
27522;1709200;
27531;1709196;
27524;1709209;
27531;1709218;
27526;1709218;
27530;1709223;
27528;1709219;
27535;1709228;
27523;1709232;
27543;1709236;
27526;1709229;
27538;1709221;
27524;1709237;
27531;1709242;
27528;1709233;
27529;1709249;
27530;1709245;
27534;1709231;
27532;1709243;
27531;1709253;
27523;1709255;
27533;1709270;
27538;1709267;
27536;1709263;
27534;1709263;
27536;1709272;
27532;1709258;
27540;1709277;
27536;1709283;
27537;1709282;
27539;1709264;
27535;1709277;
27537;1709266;
27539;1709262;
27532;1709241;
27544;1709244;
27531;1709207;
27527;1709158;
27526;1709123;
27525;1709087;
27524;1709076;
27519;1709058;
27530;1709072;
27525;1709064;
27523;1709098;
27528;1709097;
27526;1709118;
27531;1709132;
27529;1709161;
27533;1709172;
27534;1709177;
27536;1709191;
27532;1709184;
27539;1709196;
27533;1709193;
27533;1709204;
27529;1709219;
27533;1709202;
27529;1709215;
27526;1709218;
27531;1709210;
27515;1709200;
27522;1709222;
27519;1709214;
27527;1709222;
27522;1709217;
27523;1709215;
27519;1709212;
27520;1709222;
27521;1709210;
27522;1709214;
27519;1709206;
27524;1709207;
27522;1709195;
27516;1709188;
27516;1709182;
27515;1709192;
27508;1709189;
27522;1709191;
27510;1709175;
27505;1709183;
27503;1709177;
27517;1709193;
27507;1709193;
27514;1709186;
27503;1709174;
27508;1709190;
27507;1709183;
27507;1709190;
27507;1709182;
27510;1709189;
27510;1709178;
27510;1709189;
27505;1709188;
27510;1709195;
27517;1709189;
27516;1709192;
27515;1709185;
27505;1709196;
27503;1709193;
27512;1709186;
27502;1709189;
27507;1709193;
27501;1709180;
27512;1709183;
27493;1709187;
27504;1709199;
27495;1709183;
27503;1709201;
27491;1709196;
27501;1709214;
27499;1709213;
27508;1709212;
27507;1709221;
27512;1709236;
27502;1709239;
27509;1709257;
27507;1709236;
27513;1709264;
27510;1709247;
27514;1709256;
27518;1709257;
27516;1709269;
27511;1709259;
27515;1709274;
27514;1709269;
27524;1709276;
27510;1709273;
27524;1709276;
27516;1709266;
27525;1709263;
27516;1709260;
27517;1709248;
27517;1709266;
27528;1709263;
27517;1709267;
27517;1709266;
27512;1709259;
27513;1709285;
27503;1709274;
27525;1709279;
27516;1709266;
27524;1709252;
27506;1709237;
27519;1709218;
27507;1709188;
27499;1709142;
27498;1709106;
27500;1709094;
27491;1709067;
27487;1709073;
27492;1709078;
27493;1709092;
27486;1709095;
27494;1709110;
27491;1709117;
27494;1709133;
27499;1709143;
27497;1709160;
27494;1709146;
27498;1709169;
27496;1709164;
27502;1709164;
27493;1709166;
27497;1709166;
27488;1709165;
27497;1709183;
27491;1709179;
27507;1709202;
27496;1709199;
27506;1709201;
27493;1709186;
27498;1709181;
27493;1709199;
27502;1709194;
27503;1709190;
27502;1709200;
27498;1709200;
27500;1709204;
27502;1709208;
27511;1709217;
27504;1709218;
27508;1709211;
27498;1709215;
27506;1709222;
27503;1709211;
27516;1709219;
27507;1709222;
27511;1709233;
27501;1709242;
27503;1709236;
27496;1709227;
27498;1709230;
27500;1709231;
27487;1709238;
27497;1709237;
27496;1709245;
27498;1709236;
27502;1709249;
27507;1709248;
27497;1709245;
27499;1709248;
27501;1709260;
27501;1709259;
27504;1709271;
27502;1709266;
27511;1709274;
27506;1709283;
27504;1709282;
27504;1709289;
27509;1709306;
27505;1709303;
27507;1709300;
27509;1709305;
27506;1709292;
27512;1709301;
27506;1709284;
27505;1709288;
27513;1709278;
27511;1709293;
27517;1709278;
27511;1709294;
27505;1709281;
27510;1709272;
27512;1709284;
27506;1709289;
27514;1709289;
27507;1709296;
27514;1709299;
27507;1709282;
27516;1709298;
27508;1709303;
27515;1709302;
27514;1709315;
27510;1709302;
27508;1709315;
27511;1709325;
27507;1709318;
27497;1709316;
27510;1709329;
27504;1709320;
27513;1709327;
27515;1709327;
27510;1709341;
27518;1709331;
27508;1709350;
27514;1709345;
27518;1709346;
27512;1709339;
27517;1709346;
27515;1709352;
27517;1709354;
27521;1709359;
27523;1709359;
27526;1709367;
27523;1709364;
27520;1709353;
27529;1709316;
27524;1709277;
27534;1709246;
27526;1709228;
27534;1709214;
27519;1709205;
27537;1709215;
27528;1709231;
27531;1709253;
27534;1709270;
27543;1709303;
27534;1709309;
27545;1709328;
27551;1709347;
27539;1709343;
27543;1709362;
27541;1709385;
27544;1709393;
27544;1709393;
27542;1709390;
27537;1709399;
27528;1709404;
27540;1709412;
27533;1709420;
27535;1709430;
27531;1709416;
27538;1709424;
27535;1709425;
27546;1709430;
27540;1709423;
27536;1709432;
27540;1709418;
27539;1709420;
27539;1709414;
27537;1709427;
27543;1709426;
27546;1709438;
27545;1709419;
27536;1709437;
27538;1709425;
27544;1709438;
27533;1709427;
27540;1709437;
27532;1709425;
27542;1709432;
27532;1709441;
27548;1709454;
27538;1709449;
27554;1709448;
27545;1709445;
27552;1709453;
27547;1709463;
27550;1709450;
27558;1709459;
27557;1709475;
27545;1709465;
27552;1709483;
27545;1709483;
27555;1709489;
27544;1709475;
27551;1709478;
27542;1709476;
27543;1709483;
27549;1709468;
27544;1709496;
27546;1709488;
27543;1709498;
27539;1709508;
27540;1709507;
27548;1709500;
27552;1709518;
27545;1709514;
27540;1709510;
27553;1709505;
27556;1709511;
27536;1709512;
27552;1709519;
27552;1709526;
27560;1709539;
27556;1709528;
27560;1709536;
27553;1709542;
27560;1709560;
27551;1709540;
27550;1709542;
27551;1709533;
27556;1709536;
27553;1709543;
27562;1709551;
27546;1709554;
27562;1709545;
27562;1709548;
27562;1709554;
27564;1709563;
27559;1709563;
27553;1709549;
27566;1709546;
27553;1709541;
27566;1709538;
27553;1709535;
27563;1709518;
27552;1709502;
27559;1709468;
27541;1709414;
27552;1709363;
27539;1709312;
27530;1709284;
27533;1709255;
27529;1709260;
27530;1709272;
27532;1709288;
27533;1709303;
27531;1709324;
27537;1709349;
27536;1709370;
27533;1709397;
27536;1709419;
27543;1709437;
27543;1709449;
27545;1709453;
27545;1709466;
27539;1709463;
27547;1709490;
27545;1709487;
27545;1709490;
27545;1709497;
27544;1709500;
27545;1709495;
27541;1709493;
27548;1709487;
27551;1709476;
27536;1709498;
27544;1709490;
27547;1709492;
27553;1709481;
27546;1709491;
27553;1709479;
27552;1709490;
27558;1709477;
27557;1709490;
27546;1709495;
27553;1709506;
27554;1709502;
27557;1709507;
27559;1709509;
27551;1709515;
27555;1709516;
27549;1709515;
27554;1709503;
27549;1709509;
27544;1709497;
27555;1709502;
27539;1709491;
27548;1709512;
27542;1709501;
27546;1709508;
27541;1709507;
27548;1709519;
27543;1709512;
27554;1709527;
27551;1709518;
27546;1709530;
27557;1709530;
27548;1709541;
27552;1709534;
27556;1709553;
27553;1709551;
27559;1709551;
27548;1709545;
27557;1709543;
27542;1709563;
27556;1709560;
27554;1709575;
27561;1709577;
27557;1709575;
27566;1709581;
27559;1709579;
27565;1709579;
27557;1709555;
27562;1709574;
27550;1709562;
27554;1709574;
27563;1709572;
27560;1709569;
27560;1709573;
27559;1709584;
27565;1709580;
27561;1709583;
27561;1709597;
27560;1709593;
27559;1709586;
27562;1709608;
27550;1709603;
27561;1709607;
27543;1709604;
27562;1709630;
27555;1709620;
27565;1709624;
27550;1709610;
27559;1709610;
27559;1709573;
27566;1709533;
27556;1709458;
27549;1709369;
27549;1709244;
27542;1709150;
27532;1709052;
27532;1709035;
27527;1709015;
27526;1709040;
27525;1709054;
27527;1709113;
27533;1709150;
27539;1709204;
27536;1709228;
27550;1709277;
27538;1709305;
27548;1709347;
27553;1709354;
27556;1709386;
27549;1709388;
27559;1709410;
27552;1709428;
27558;1709450;
27554;1709484;
27566;1709494;
27558;1709506;
27561;1709523;
27558;1709516;
27572;1709525;
27550;1709529;
27566;1709530;
27557;1709527;
27564;1709536;
27550;1709520;
27552;1709532;
27561;1709517;
27559;1709526;
27554;1709525;
27557;1709537;
27549;1709539;
27552;1709547;
27553;1709539;
27550;1709552;
27558;1709542;
27559;1709573;
27559;1709567;
27557;1709577;
27558;1709580;
27562;1709591;
27558;1709586;
27563;1709591;
27551;1709588;
27566;1709594;
27557;1709587;
27560;1709604;
27555;1709602;
27564;1709613;
27562;1709608;
27563;1709612;
27550;1709608;
27564;1709617;
27552;1709612;
27562;1709605;
27564;1709607;
27565;1709610;
27566;1709623;
27569;1709630;
27564;1709632;
27567;1709638;
27560;1709640;
27574;1709644;
27568;1709636;
27577;1709642;
27569;1709641;
27565;1709641;
27558;1709629;
27566;1709634;
27560;1709633;
27558;1709649;
27562;1709638;
27564;1709644;
27559;1709655;
27560;1709647;
27565;1709648;
27564;1709651;
27557;1709647;
27563;1709656;
27561;1709663;
27564;1709661;
27561;1709643;
27562;1709657;
27564;1709659;
27562;1709664;
27567;1709667;
27571;1709651;
27560;1709655;
27559;1709669;
27560;1709669;
27570;1709667;
27556;1709660;
27555;1709655;
27553;1709649;
27564;1709641;
27559;1709615;
27555;1709557;
27548;1709470;
27546;1709375;
27540;1709271;
27534;1709158;
27521;1709088;
27523;1709047;
27520;1709032;
27525;1709028;
27517;1709060;
27530;1709111;
27527;1709149;
27532;1709202;
27533;1709248;
27536;1709285;
27531;1709313;
27535;1709338;
27539;1709379;
27531;1709394;
27540;1709429;
27526;1709429;
27544;1709451;
27541;1709478;
27548;1709489;
27542;1709504;
27548;1709523;
27550;1709530;
27547;1709535;
27550;1709534;
27555;1709544;
27555;1709564;
27553;1709559;
27551;1709563;
27559;1709578;
27553;1709572;
27556;1709568;
27553;1709578;
27559;1709571;
27556;1709574;
27558;1709579;
27551;1709577;
27565;1709587;
27554;1709593;
27564;1709601;
27563;1709593;
27560;1709601;
27553;1709592;
27560;1709620;
27554;1709614;
27563;1709616;
27563;1709611;
27561;1709628;
27559;1709629;
27558;1709641;
27574;1709644;
27566;1709640;
27564;1709641;
27564;1709650;
27568;1709651;
27560;1709652;
27561;1709652;
27559;1709654;
27552;1709651;
27561;1709663;
27554;1709658;
27560;1709658;
27550;1709662;
27555;1709670;
27556;1709668;
27555;1709688;
27559;1709670;
27560;1709686;
27568;1709673;
27561;1709686;
27558;1709677;
27558;1709675;
27557;1709668;
27564;1709686;
27561;1709692;
27568;1709693;
27559;1709681;
27563;1709690;
27555;1709695;
27573;1709712;
27559;1709707;
27574;1709701;
27559;1709700;
27572;1709703;
27565;1709705;
27576;1709723;
27564;1709719;
27578;1709723;
27569;1709729;
27577;1709734;
27571;1709729;
27575;1709724;
27571;1709736;
27582;1709727;
27571;1709730;
27579;1709743;
27571;1709748;
27577;1709758;
27566;1709744;
27571;1709751;
27567;1709746;
27571;1709749;
27575;1709725;
27569;1709736;
27569;1709710;
27570;1709697;
27567;1709640;
27570;1709587;
27566;1709552;
27567;1709517;
27560;1709496;
27563;1709483;
27563;1709487;
27567;1709519;
27563;1709528;
27566;1709569;
27563;1709568;
27572;1709606;
27561;1709606;
27570;1709650;
27561;1709647;
27576;1709662;
27567;1709667;
27570;1709675;
27572;1709675;
27576;1709687;
27564;1709691;
27575;1709685;
27566;1709692;
27574;1709699;
27573;1709703;
27571;1709715;
27575;1709736;
27584;1709738;
27576;1709726;
27583;1709727;
27573;1709721;
27579;1709725;
27572;1709726;
27585;1709731;
27575;1709736;
27574;1709744;
27577;1709747;
27575;1709747;
27577;1709746;
27561;1709749;
27572;1709741;
27566;1709742;
27573;1709763;
27571;1709766;
27572;1709772;
27579;1709769;
27575;1709778;
27585;1709780;
27577;1709785;
27580;1709781;
27576;1709773;
27581;1709777;
27577;1709775;
27579;1709765;
27570;1709762;
27576;1709780;
27575;1709777;
27574;1709774;
27575;1709771;
27582;1709769;
27577;1709772;
27580;1709778;
27575;1709780;
27576;1709780;
27580;1709796;
27579;1709788;
27571;1709791;
27581;1709800;
27580;1709801;
27580;1709798;
27579;1709795;
27582;1709806;
27581;1709794;
27578;1709800;
27574;1709797;
27578;1709800;
27574;1709802;
27569;1709792;
27566;1709804;
27558;1709782;
27572;1709795;
27560;1709796;
27563;1709796;
27563;1709800;
27568;1709808;
27563;1709786;
27568;1709796;
27577;1709803;
27575;1709810;
27574;1709795;
27578;1709812;
27571;1709808;
27567;1709814;
27567;1709806;
27564;1709812;
27562;1709811;
27573;1709802;
27562;1709783;
27569;1709780;
27555;1709768;
27571;1709730;
27557;1709683;
27568;1709636;
27556;1709568;
27551;1709553;
27545;1709528;
27555;1709530;
27549;1709532;
27550;1709549;
27546;1709571;
27555;1709594;
27557;1709614;
27550;1709634;
27561;1709646;
27563;1709662;
27555;1709665;
27555;1709686;
27551;1709694;
27549;1709705;
27549;1709705;
27562;1709723;
27551;1709720;
27550;1709746;
27548;1709724;
27560;1709744;
27543;1709724;
27557;1709737;
27556;1709730;
27557;1709732;
27560;1709731;
27564;1709740;
27562;1709738;
27557;1709738;
27557;1709726;
27566;1709732;
27564;1709729;
27561;1709732;
27548;1709719;
27554;1709748;
27554;1709730;
27558;1709731;
27555;1709723;
27563;1709737;
27552;1709720;
27569;1709736;
27549;1709726;
27562;1709739;
27551;1709740;
27562;1709744;
27558;1709745;
27564;1709757;
27553;1709751;
27560;1709752;
27565;1709751;
27566;1709754;
27562;1709765;
27560;1709780;
27563;1709774;
27569;1709785;
27564;1709774;
27559;1709780;
27560;1709780;
27554;1709777;
27549;1709778;
27560;1709780;
27552;1709763;
27556;1709784;
27551;1709782;
27555;1709797;
27547;1709787;
27559;1709808;
27554;1709787;
27561;1709798;
27560;1709795;
27569;1709808;
27560;1709806;
27566;1709810;
27560;1709795;
27565;1709815;
27557;1709802;
27560;1709799;
27557;1709805;
27561;1709812;
27548;1709798;
27558;1709800;
27552;1709804;
27561;1709806;
27558;1709806;
27558;1709812;
27563;1709824;
27562;1709817;
27561;1709815;
27567;1709807;
27565;1709812;
27564;1709813;
27558;1709779;
27567;1709758;
27553;1709695;
27561;1709628;
27545;1709563;
27543;1709515;
27536;1709452;
27542;1709424;
27535;1709414;
27535;1709432;
27537;1709442;
27535;1709471;
27541;1709502;
27537;1709532;
27536;1709548;
27536;1709576;
27538;1709596;
27550;1709621;
27551;1709636;
27548;1709662;
27548;1709653;
27552;1709670;
27551;1709687;
27558;1709690;
27558;1709691;
27550;1709723;
27550;1709720;
27560;1709734;
27550;1709724;
27548;1709745;
27552;1709720;
27554;1709739;
27555;1709740;
27554;1709742;
27564;1709739;
27561;1709731;
27556;1709740;
27558;1709715;
27561;1709741;
27565;1709737;
27557;1709742;
27564;1709751;
27560;1709747;
27566;1709746;
27556;1709760;
27569;1709762;
27558;1709763;
27563;1709758;
27562;1709783;
27560;1709784;
27563;1709791;
27561;1709782;
27557;1709790;
27555;1709783;
27553;1709785;
27548;1709779;
27553;1709789;
27557;1709790;
27552;1709789;
27561;1709785;
27564;1709789;
27561;1709794;
27565;1709801;
27561;1709794;
27564;1709803;
27563;1709818;
27560;1709817;
27559;1709817;
27560;1709826;
27555;1709819;
27558;1709808;
27553;1709817;
27554;1709816;
27547;1709794;
27559;1709803;
27549;1709802;
27559;1709814;
27560;1709800;
27566;1709796;
27561;1709799;
27561;1709827;
27555;1709818;
27557;1709823;
27565;1709817;
27567;1709833;
27565;1709828;
27564;1709821;
27563;1709830;
27562;1709831;
27559;1709832;
27565;1709832;
27558;1709831;
27564;1709836;
27557;1709832;
27559;1709829;
27542;1709821;
27552;1709853;
27543;1709834;
27554;1709841;
27549;1709835;
27550;1709833;
27550;1709800;
27554;1709787;
27551;1709717;
27539;1709648;
27538;1709537;
27529;1709444;
27517;1709348;
27521;1709307;
27518;1709277;
27513;1709272;
27520;1709291;
27525;1709335;
27513;1709359;
27524;1709398;
27516;1709430;
27533;1709455;
27518;1709474;
27531;1709494;
27523;1709521;
27531;1709535;
27525;1709548;
27535;1709566;
27532;1709596;
27544;1709612;
27540;1709635;
27549;1709663;
27537;1709674;
27553;1709676;
27542;1709699;
27544;1709690;
27548;1709707;
27548;1709718;
27547;1709703;
27545;1709710;
27538;1709705;
27536;1709723;
27540;1709718;
27537;1709736;
27543;1709718;
27541;1709735;
27545;1709738;
27552;1709750;
27547;1709743;
27543;1709761;
27549;1709763;
27546;1709772;
27544;1709767;
27548;1709770;
27550;1709779;
27544;1709780;
27551;1709778;
27552;1709787;
27542;1709788;
27547;1709799;
27545;1709788;
27552;1709796;
27556;1709790;
27552;1709799;
27556;1709805;
27559;1709803;
27559;1709817;
27564;1709823;
27549;1709818;
27565;1709836;
27554;1709841;
27569;1709840;
27563;1709844;
27566;1709844;
27556;1709845;
27568;1709843;
27554;1709848;
27553;1709859;
27555;1709842;
27551;1709851;
27552;1709841;
27551;1709841;
27548;1709847;
27549;1709854;
27546;1709860;
27556;1709854;
27555;1709858;
27549;1709871;
27563;1709862;
27553;1709863;
27558;1709860;
27561;1709874;
27551;1709876;
27558;1709882;
27555;1709865;
27558;1709870;
27549;1709880;
27562;1709883;
27555;1709883;
27552;1709874;
27554;1709872;
27555;1709887;
27551;1709875;
27555;1709876;
27558;1709876;
27555;1709863;
27550;1709861;
27555;1709856;
27558;1709879;
27558;1709855;
27551;1709856;
27549;1709854;
27551;1709832;
27558;1709802;
27547;1709738;
27547;1709651;
27540;1709564;
27536;1709470;
27522;1709380;
27518;1709326;
27511;1709300;
27513;1709311;
27520;1709333;
27510;1709353;
27516;1709404;
27518;1709426;
27522;1709471;
27524;1709511;
27522;1709553;
27526;1709559;
27534;1709591;
27526;1709610;
27533;1709643;
27539;1709659;
27533;1709670;
27538;1709685;
27542;1709705;
27535;1709719;
27547;1709732;
27531;1709754;
27542;1709757;
27534;1709766;
27539;1709764;
27536;1709760;
27543;1709772;
27536;1709765;
27549;1709786;
27539;1709764;
27544;1709774;
27540;1709770;
27541;1709767;
27546;1709756;
27539;1709759;
27546;1709770;
27546;1709783;
27542;1709783;
27547;1709789;
27546;1709795;
27549;1709811;
27545;1709797;
27547;1709795;
27543;1709796;
27541;1709816;
27531;1709812;
27544;1709820;
27540;1709811;
27544;1709827;
27544;1709816;
27548;1709835;
27538;1709828;
27547;1709840;
27540;1709831;
27548;1709855;
27543;1709835;
27543;1709843;
27543;1709824;
27548;1709848;
27541;1709839;
27545;1709855;
27551;1709836;
27547;1709870;
27541;1709852;
27552;1709857;
27529;1709847;
27544;1709857;
27543;1709856;
27551;1709856;
27539;1709861;
27557;1709853;
27538;1709854;
27552;1709854;
27539;1709857;
27556;1709862;
27547;1709869;
27554;1709873;
27543;1709876;
27554;1709888;
27539;1709881;
27558;1709880;
27547;1709878;
27549;1709889;
27541;1709892;
27553;1709885;
27538;1709894;
27542;1709897;
27540;1709890;
27536;1709904;
27536;1709884;
27537;1709874;
27540;1709863;
27534;1709846;
27529;1709769;
27530;1709680;
27519;1709563;
27518;1709425;
27503;1709315;
27496;1709266;
27493;1709224;
27493;1709229;
27490;1709240;
27494;1709278;
27492;1709324;
27508;1709403;
27501;1709429;
27505;1709486;
27505;1709514;
27510;1709537;
27515;1709558;
27524;1709589;
27515;1709607;
27522;1709644;
27523;1709676;
27525;1709690;
27517;1709718;
27529;1709722;
