21302;869552;
27449;1707663;
27431;1711006;
27431;1710971;
27413;1710924;
27410;1710880;
27394;1710839;
27391;1710795;
27379;1710678;
27364;1710487;
27340;1710172;
27313;1709863;
27284;1709568;
27274;1709380;
27258;1709254;
27257;1709208;
27239;1709196;
27268;1709268;
27266;1709337;
27286;1709425;
27281;1709510;
27298;1709608;
27300;1709727;
27312;1709829;
27326;1709965;
27343;1710096;
27350;1710243;
27368;1710351;
27366;1710442;
27383;1710518;
27384;1710577;
27395;1710639;
27384;1710671;
27400;1710718;
27395;1710734;
27403;1710745;
27390;1710748;
27391;1710765;
27389;1710759;
27390;1710764;
27377;1710766;
27375;1710747;
27371;1710739;
27375;1710751;
27371;1710767;
27382;1710807;
27387;1710842;
27396;1710864;
27401;1710886;
27408;1710911;
27410;1710937;
27412;1710936;
27405;1710940;
27414;1710925;
27399;1710886;
27403;1710862;
27395;1710869;
27406;1710895;
27409;1710949;
27415;1711018;
27426;1711060;
27440;1711127;
27443;1711170;
27457;1711182;
27456;1711201;
27463;1711241;
27469;1711290;
27479;1711340;
27486;1711408;
27508;1711414;
27503;1711219;
27491;1710878;
27480;1710573;
27481;1710342;
27474;1710156;
27486;1710019;
27479;1709897;
27474;1709771;
27467;1709672;
27476;1709617;
27478;1709578;
27484;1709571;
27486;1709563;
27483;1709561;
27499;1709573;
27491;1709598;
27501;1709637;
27495;1709676;
27503;1709736;
27516;1709787;
27517;1709851;
27517;1709870;
27510;1709869;
27505;1709861;
27496;1709870;
27501;1709901;
27488;1709912;
27485;1709919;
27480;1709880;
27468;1709878;
27468;1709863;
27456;1709865;
27454;1709845;
27428;1709795;
27422;1709743;
27393;1709670;
27392;1709645;
27374;1709639;
27381;1709675;
27369;1709703;
27368;1709726;
27359;1709715;
27357;1709694;
27351;1709647;
27350;1709631;
27338;1709597;
27335;1709598;
27327;1709586;
27332;1709610;
27331;1709601;
27334;1709581;
27318;1709550;
27317;1709518;
27304;1709451;
27308;1709425;
27300;1709389;
27309;1709389;
27306;1709363;
27312;1709358;
27306;1709321;
27308;1709298;
27295;1709168;
27291;1708962;
27261;1708703;
27242;1708440;
27217;1708108;
27196;1707804;
27174;1707470;
27156;1707175;
27125;1706879;
27111;1706641;
27093;1706416;
27082;1706252;
27061;1706096;
27067;1705992;
27055;1705908;
27062;1705872;
27053;1705857;
27073;1705876;
27064;1705910;
27076;1705951;
27061;1705996;
27066;1706057;
27064;1706138;
27085;1706230;
27082;1706316;
27095;1706385;
27093;1706437;
27108;1706489;
27096;1706528;
27108;1706558;
27093;1706605;
27110;1706633;
27101;1706640;
27105;1706677;
27107;1706712;
27113;1706742;
27104;1706746;
27102;1706768;
27102;1706774;
27104;1706801;
27114;1706814;
27108;1706844;
27113;1706877;
27117;1706897;
27128;1706905;
27128;1706929;
27125;1706953;
27138;1706999;
27137;1707037;
27150;1707092;
27149;1707131;
27157;1707201;
27163;1707241;
27163;1707299;
27169;1707337;
27179;1707405;
27175;1707433;
27184;1707459;
27182;1707481;
27189;1707510;
27183;1707545;
27193;1707576;
27194;1707600;
27199;1707502;
27167;1707321;
27161;1707120;
27137;1706891;
27124;1706658;
27102;1706402;
27089;1706157;
27056;1705952;
27060;1705775;
27034;1705632;
27029;1705551;
27018;1705485;
27019;1705458;
27006;1705440;
27004;1705465;
27010;1705500;
27013;1705573;
27019;1705632;
27030;1705710;
27028;1705789;
27036;1705867;
27046;1705951;
27054;1706032;
27059;1706112;
27079;1706185;
27077;1706256;
27083;1706326;
27086;1706380;
27092;1706450;
27089;1706493;
27098;1706543;
27101;1706566;
27099;1706588;
27096;1706607;
27105;1706607;
27098;1706593;
27096;1706588;
27094;1706596;
27098;1706610;
27085;1706650;
27089;1706676;
27100;1706725;
27106;1706762;
27100;1706807;
27109;1706870;
27111;1706923;
27123;1706969;
27121;1707041;
27126;1707084;
27133;1707132;
27136;1707184;
27131;1707243;
27145;1707307;
27141;1707349;
27142;1707373;
27142;1707401;
27143;1707421;
27146;1707464;
27139;1707513;
27151;1707536;
27132;1707438;
27131;1707278;
27108;1707072;
27099;1706861;
27075;1706632;
27055;1706400;
27035;1706162;
27020;1705990;
27019;1705811;
26996;1705685;
26994;1705572;
26985;1705490;
26977;1705454;
26978;1705444;
26972;1705474;
26984;1705506;
26979;1705553;
26990;1705638;
26985;1705692;
27016;1705782;
27006;1705844;
27019;1705923;
27020;1705997;
27022;1706068;
27029;1706105;
27031;1706155;
27026;1706159;
27028;1706195;
27039;1706203;
27036;1706225;
27031;1706239;
27036;1706249;
27041;1706259;
27031;1706251;
27032;1706238;
27031;1706214;
27025;1706199;
27019;1706187;
27017;1706162;
27016;1706158;
27016;1706145;
27019;1706171;
27010;1706162;
27014;1706209;
27026;1706241;
27031;1706315;
27039;1706366;
27050;1706464;
27046;1706536;
27067;1706621;
27067;1706711;
27080;1706804;
27082;1706863;
27087;1706952;
27093;1707033;
27095;1707166;
27098;1707283;
27103;1707400;
27101;1707403;
27091;1707292;
27072;1707099;
27070;1706915;
27040;1706733;
27040;1706593;
27011;1706450;
27008;1706333;
26998;1706227;
27003;1706169;
26995;1706113;
26993;1706067;
26977;1706031;
26992;1706031;
26987;1706049;
26993;1706082;
26986;1706127;
26999;1706191;
26996;1706253;
27007;1706334;
27005;1706421;
27024;1706505;
27020;1706582;
27026;1706672;
27028;1706713;
27033;1706757;
27030;1706778;
27039;1706830;
27043;1706856;
27045;1706901;
27052;1706932;
27056;1706958;
27051;1706984;
27061;1707025;
27059;1707049;
27059;1707069;
27063;1707090;
27064;1707130;
27056;1707150;
27070;1707193;
27067;1707227;
27079;1707295;
27082;1707385;
27096;1707503;
27104;1707627;
27119;1707744;
27127;1707849;
27136;1707940;
27138;1708036;
27145;1708129;
27147;1708213;
27157;1708266;
27159;1708320;
27173;1708343;
27161;1708378;
27177;1708396;
27160;1708423;
27176;1708365;
27141;1708148;
27123;1707833;
27087;1707523;
27071;1707260;
27037;1707038;
27031;1706829;
27014;1706665;
26996;1706512;
26984;1706384;
26971;1706285;
26969;1706197;
26966;1706164;
26963;1706146;
26967;1706170;
26969;1706212;
26978;1706278;
26980;1706327;
26984;1706383;
26981;1706447;
26994;1706526;
26994;1706597;
27004;1706667;
27009;1706732;
27007;1706804;
27009;1706837;
27021;1706879;
27017;1706916;
27025;1706929;
27025;1706947;
27028;1706946;
27018;1706959;
27027;1706979;
27027;1707011;
27040;1707046;
27039;1707111;
27040;1707149;
27043;1707195;
27050;1707249;
27050;1707288;
27064;1707331;
27060;1707361;
27071;1707403;
27067;1707440;
27074;1707465;
27061;1707516;
27070;1707575;
27079;1707630;
27078;1707694;
27090;1707745;
27091;1707788;
27090;1707840;
27092;1707882;
27099;1707914;
27096;1707961;
27101;1707986;
27099;1707988;
27114;1707945;
27091;1707798;
27068;1707550;
27047;1707306;
27021;1707058;
27009;1706821;
26982;1706582;
26964;1706362;
26948;1706161;
26927;1706008;
26923;1705896;
26911;1705809;
26917;1705760;
26909;1705736;
26916;1705744;
26909;1705772;
26928;1705804;
26923;1705835;
26930;1705916;
26928;1705974;
26943;1706053;
26940;1706129;
26955;1706210;
26960;1706291;
26970;1706367;
26971;1706433;
26977;1706495;
26978;1706548;
26981;1706585;
26983;1706626;
26985;1706644;
26977;1706645;
26975;1706632;
26966;1706606;
26967;1706589;
26954;1706594;
26973;1706611;
26961;1706618;
26970;1706658;
26966;1706687;
26975;1706758;
26970;1706795;
26991;1706881;
26990;1706935;
27006;1707008;
27008;1707062;
27022;1707151;
27019;1707203;
27027;1707296;
27029;1707354;
27040;1707418;
27040;1707472;
27052;1707539;
27043;1707571;
27057;1707622;
27055;1707664;
27073;1707710;
27059;1707748;
27078;1707731;
27044;1707564;
27042;1707314;
26997;1707055;
26994;1706835;
26964;1706608;
26954;1706384;
26939;1706188;
26937;1705994;
26900;1705820;
26911;1705688;
26882;1705578;
26896;1705508;
26870;1705474;
26875;1705460;
26869;1705450;
26870;1705470;
26872;1705507;
26879;1705575;
26883;1705632;
26896;1705720;
26897;1705805;
26906;1705901;
26919;1705971;
26917;1706023;
26915;1706062;
26917;1706081;
26912;1706083;
26926;1706097;
26916;1706101;
26929;1706132;
26927;1706171;
26940;1706225;
26933;1706278;
26940;1706338;
26937;1706374;
26951;1706428;
26948;1706454;
26960;1706493;
26954;1706524;
26957;1706550;
26953;1706580;
26963;1706597;
26951;1706652;
26961;1706700;
26969;1706758;
26978;1706815;
26980;1706876;
26986;1706913;
26980;1706956;
26989;1706984;
26985;1706995;
26995;1707020;
26990;1707051;
26995;1707075;
26988;1707094;
26996;1707155;
26989;1707201;
26996;1707187;
26978;1707018;
26954;1706811;
26936;1706576;
26913;1706364;
26903;1706142;
26889;1705923;
26865;1705739;
26850;1705561;
26841;1705403;
26827;1705291;
26827;1705203;
26828;1705173;
26821;1705171;
26832;1705210;
26827;1705258;
26839;1705322;
26844;1705398;
26844;1705465;
26856;1705532;
26853;1705593;
26856;1705629;
26863;1705681;
26868;1705705;
26865;1705748;
26874;1705774;
26875;1705821;
26877;1705872;
26884;1705915;
26886;1705965;
26898;1706000;
26895;1706055;
26903;1706095;
26902;1706130;
26923;1706159;
26911;1706204;
26926;1706268;
26922;1706310;
26934;1706374;
26930;1706463;
26949;1706536;
26942;1706641;
26946;1706744;
26963;1706844;
26955;1706944;
26970;1707032;
26960;1707105;
26977;1707166;
26975;1707225;
26985;1707302;
26987;1707360;
27003;1707424;
27003;1707486;
27016;1707558;
27018;1707611;
27026;1707680;
27022;1707677;
27023;1707563;
26996;1707295;
26970;1706993;
26942;1706726;
26927;1706465;
26896;1706224;
26879;1705992;
26866;1705775;
26851;1705610;
26834;1705463;
26836;1705379;
26821;1705313;
26826;1705301;
26824;1705297;
26832;1705340;
26833;1705358;
26845;1705419;
26844;1705455;
26854;1705522;
26859;1705580;
26860;1705651;
26869;1705702;
26868;1705769;
26865;1705800;
26873;1705827;
26871;1705849;
26869;1705868;
26869;1705867;
26876;1705887;
26858;1705890;
26866;1705906;
26859;1705910;
26870;1705944;
26868;1705969;
26880;1706018;
26872;1706047;
26883;1706093;
26883;1706110;
26893;1706157;
26889;1706184;
26888;1706230;
26894;1706255;
26896;1706339;
26902;1706404;
26908;1706476;
26910;1706513;
26921;1706588;
26924;1706630;
26936;1706686;
26924;1706753;
26947;1706819;
26935;1706872;
26958;1706918;
26949;1706968;
26966;1707028;
26958;1707075;
26977;1707120;
26964;1707080;
26957;1706911;
26925;1706672;
26912;1706410;
26876;1706155;
26861;1705889;
26837;1705629;
26829;1705408;
26794;1705198;
26801;1705031;
26770;1704910;
26769;1704851;
26757;1704802;
26756;1704808;
26750;1704818;
26766;1704879;
26762;1704950;
26770;1705039;
26786;1705122;
26790;1705229;
26793;1705312;
26810;1705389;
26813;1705443;
26819;1705499;
26822;1705546;
26826;1705612;
26823;1705640;
26826;1705651;
26826;1705656;
26822;1705666;
26826;1705684;
26826;1705721;
26827;1705722;
26829;1705738;
26816;1705752;
26830;1705784;
26827;1705812;
26843;1705835;
26832;1705889;
26845;1705943;
26852;1706004;
26859;1706074;
26858;1706133;
26862;1706174;
26861;1706232;
26883;1706282;
26887;1706328;
26889;1706382;
26886;1706428;
26891;1706486;
26890;1706514;
26902;1706544;
26898;1706564;
26900;1706564;
26898;1706521;
26890;1706491;
26892;1706463;
26885;1706455;
26882;1706425;
26879;1706369;
26866;1706214;
26839;1705977;
26821;1705705;
26796;1705398;
26762;1705072;
26742;1704764;
26712;1704481;
26705;1704243;
26674;1704055;
26668;1703931;
26653;1703845;
26651;1703798;
26637;1703775;
26645;1703797;
26638;1703813;
26658;1703882;
26659;1703953;
26671;1704043;
26681;1704159;
26692;1704254;
26706;1704372;
26707;1704441;
26715;1704522;
26727;1704586;
26734;1704641;
26728;1704701;
26739;1704745;
26741;1704797;
26740;1704831;
26745;1704843;
26738;1704870;
26744;1704890;
26747;1704903;
26747;1704945;
26747;1704957;
26749;1704967;
26748;1705005;
26749;1705023;
26753;1705060;
26742;1705096;
26760;1705169;
26761;1705237;
26771;1705322;
26776;1705375;
26779;1705439;
26800;1705490;
26797;1705551;
26793;1705604;
26801;1705637;
26813;1705701;
26821;1705776;
26821;1705857;
26829;1705913;
26836;1705982;
26837;1706046;
26841;1706101;
26847;1706136;
26844;1706188;
26856;1706232;
26851;1706266;
26869;1706223;
26843;1706071;
26828;1705862;
26794;1705640;
26784;1705416;
26757;1705197;
26742;1705013;
26723;1704819;
26711;1704680;
26704;1704547;
26694;1704490;
26688;1704436;
26686;1704440;
26691;1704460;
26691;1704518;
26704;1704601;
26709;1704701;
26708;1704798;
26721;1704899;
26722;1705017;
26745;1705152;
26746;1705263;
26758;1705387;
26763;1705476;
26774;1705545;
26773;1705592;
26782;1705638;
26792;1705636;
26785;1705656;
26782;1705659;
26791;1705667;
26787;1705673;
26785;1705695;
26795;1705711;
26788;1705739;
26800;1705754;
26795;1705809;
26792;1705849;
26803;1705911;
26796;1705965;
26817;1706029;
26810;1706075;
26824;1706142;
26820;1706189;
26849;1706260;
26834;1706332;
26849;1706404;
26843;1706489;
26864;1706551;
26865;1706611;
26875;1706689;
26870;1706765;
26893;1706849;
26893;1706908;
26905;1706973;
26904;1707023;
26907;1707068;
26914;1707117;
26921;1707172;
26916;1707203;
26920;1707252;
26920;1707228;
26906;1707116;
26877;1706857;
26849;1706564;
26831;1706329;
26809;1706107;
26797;1705911;
26779;1705738;
26770;1705603;
26755;1705487;
26750;1705401;
26751;1705352;
26746;1705327;
26749;1705346;
26741;1705362;
26752;1705420;
26753;1705484;
26764;1705585;
26766;1705667;
26789;1705796;
26788;1705905;
26804;1706008;
26814;1706091;
26825;1706155;
26822;1706235;
26844;1706272;
26836;1706318;
26833;1706351;
26836;1706337;
26839;1706328;
26829;1706317;
26833;1706301;
26829;1706290;
26845;1706293;
26825;1706296;
26833;1706309;
26834;1706341;
26835;1706369;
26835;1706403;
26835;1706438;
26832;1706457;
26835;1706495;
26847;1706538;
26845;1706572;
26853;1706624;
26856;1706678;
26861;1706714;
26864;1706767;
26870;1706815;
26870;1706880;
26877;1706931;
26894;1706985;
26884;1707047;
26904;1707096;
26899;1707156;
26915;1707222;
26910;1707251;
26919;1707291;
26911;1707309;
26922;1707357;
26923;1707376;
26931;1707407;
26928;1707401;
26916;1707311;
26905;1707094;
26878;1706811;
26856;1706555;
26832;1706292;
26812;1706036;
26793;1705778;
26768;1705559;
26757;1705358;
26730;1705183;
26724;1705065;
26716;1704970;
26719;1704916;
26702;1704885;
26712;1704879;
26706;1704906;
26717;1704951;
26709;1705005;
26714;1705083;
26728;1705177;
26730;1705259;
26737;1705364;
26737;1705455;
26759;1705546;
26748;1705578;
26758;1705626;
26765;1705649;
26763;1705668;
26762;1705675;
26771;1705692;
26769;1705709;
26769;1705720;
26771;1705735;
26782;1705755;
26777;1705762;
26780;1705766;
26768;1705759;
26772;1705766;
26768;1705770;
26777;1705796;
26761;1705801;
26779;1705826;
26771;1705858;
26788;1705897;
26789;1705921;
26802;1705962;
26796;1705993;
26810;1706029;
26806;1706055;
26805;1706075;
26813;1706070;
26810;1706049;
26815;1706033;
26813;1706051;
26816;1706049;
26813;1706056;
26811;1706062;
26813;1706087;
26815;1706101;
26820;1706130;
26809;1706152;
26815;1706126;
26790;1705983;
26780;1705821;
26746;1705594;
26740;1705368;
26711;1705102;
26691;1704881;
26669;1704648;
26650;1704452;
26643;1704278;
26628;1704132;
26619;1704028;
26618;1703973;
26603;1703941;
26609;1703958;
26613;1703975;
26610;1704038;
26616;1704081;
26627;1704184;
26628;1704244;
26652;1704348;
26643;1704438;
26664;1704542;
26655;1704617;
26680;1704705;
26677;1704759;
26685;1704823;
26687;1704866;
26704;1704910;
26686;1704929;
26703;1704941;
26696;1704943;
26707;1704939;
26697;1704930;
26702;1704907;
26694;1704893;
26701;1704902;
26687;1704899;
26694;1704909;
26684;1704908;
26689;1704948;
26689;1704967;
26695;1704999;
26693;1705041;
26701;1705083;
26694;1705115;
26708;1705174;
26713;1705220;
26717;1705255;
26727;1705299;
26724;1705359;
26729;1705391;
26743;1705443;
26747;1705469;
26754;1705512;
26756;1705525;
26764;1705574;
26760;1705575;
26760;1705600;
26750;1705525;
26744;1705391;
26712;1705174;
26697;1704915;
26660;1704591;
26636;1704246;
26603;1703880;
26578;1703545;
26542;1703231;
26519;1702959;
26490;1702751;
26487;1702596;
26467;1702487;
26475;1702440;
26459;1702416;
26475;1702446;
26464;1702488;
26484;1702562;
26478;1702642;
26499;1702776;
26503;1702942;
26524;1703159;
26540;1703370;
26554;1703560;
26569;1703747;
26584;1703909;
26603;1704076;
26604;1704203;
26620;1704314;
26624;1704385;
26633;1704451;
26647;1704505;
26638;1704536;
26654;1704585;
26651;1704631;
26654;1704681;
26662;1704709;
26671;1704783;
26662;1704826;
26673;1704901;
26677;1704953;
26688;1705022;
26687;1705108;
26706;1705191;
26706;1705299;
26725;1705397;
26730;1705508;
26738;1705587;
26746;1705661;
26755;1705693;
26752;1705734;
26751;1705742;
26757;1705793;
26759;1705816;
26758;1705848;
26773;1705912;
26773;1705957;
26783;1705979;
26762;1705875;
26749;1705683;
26718;1705426;
26694;1705135;
26660;1704830;
26629;1704485;
26600;1704168;
26562;1703859;
26547;1703606;
26522;1703386;
26504;1703246;
26487;1703142;
26487;1703090;
26487;1703068;
26483;1703069;
26490;1703092;
26490;1703111;
26501;1703172;
26499;1703231;
26507;1703291;
26515;1703364;
26529;1703444;
26535;1703542;
26538;1703638;
26552;1703737;
26553;1703802;
26561;1703877;
26559;1703918;
26568;1703975;
26563;1704001;
26583;1704055;
26577;1704074;
26591;1704124;
26589;1704134;
26588;1704163;
26589;1704159;
26587;1704182;
26592;1704190;
26597;1704194;
26594;1704202;
26597;1704219;
26601;1704254;
26602;1704288;
26604;1704309;
26608;1704346;
26609;1704372;
26613;1704406;
26607;1704449;
26619;1704496;
26613;1704534;
26619;1704587;
26613;1704601;
26621;1704640;
26626;1704647;
26637;1704675;
26633;1704689;
26642;1704709;
26637;1704674;
26624;1704567;
26605;1704353;
26584;1704098;
26552;1703762;
26505;1703414;
26482;1703044;
26449;1702702;
26408;1702368;
26395;1702117;
26364;1701900;
26361;1701739;
26341;1701633;
26347;1701587;
26333;1701573;
26348;1701600;
26346;1701632;
26351;1701698;
26350;1701775;
26376;1701885;
26373;1701991;
26394;1702116;
26395;1702221;
26424;1702328;
26416;1702412;
26436;1702485;
26427;1702540;
26440;1702598;
26438;1702628;
26445;1702676;
26436;1702684;
26435;1702710;
26429;1702732;
26440;1702768;
26440;1702794;
26446;1702823;
26448;1702855;
26445;1702900;
26456;1702933;
26460;1702988;
26468;1703041;
26478;1703094;
26479;1703154;
26485;1703240;
26500;1703283;
26499;1703348;
26498;1703397;
26516;1703506;
26517;1703548;
26535;1703656;
26534;1703729;
26543;1703800;
26541;1703862;
26548;1703910;
26551;1703961;
26572;1704013;
26567;1704044;
26573;1704084;
26569;1704073;
26568;1703953;
26546;1703757;
26526;1703483;
26486;1703144;
26457;1702780;
26431;1702419;
26393;1702083;
26358;1701764;
26346;1701505;
26312;1701289;
26297;1701129;
26286;1701016;
26284;1700943;
26284;1700895;
26276;1700911;
26281;1700922;
26280;1700970;
26297;1701056;
26304;1701137;
26308;1701244;
26327;1701349;
26332;1701440;
26347;1701524;
26357;1701579;
26364;1701639;
26356;1701676;
26364;1701708;
26371;1701721;
26365;1701737;
26366;1701732;
26367;1701727;
26355;1701733;
26363;1701722;
26371;1701721;
26367;1701729;
26371;1701735;
26371;1701761;
26386;1701817;
26384;1701862;
26385;1701916;
26391;1701953;
26394;1701983;
26402;1702008;
26399;1702033;
26415;1702076;
26408;1702126;
26421;1702173;
26419;1702237;
26432;1702293;
26426;1702345;
26433;1702395;
26441;1702440;
26448;1702502;
26453;1702555;
26451;1702587;
26457;1702638;
26449;1702673;
26464;1702732;
26458;1702722;
26456;1702666;
26439;1702474;
26419;1702249;
26396;1701926;
26364;1701599;
26334;1701246;
26305;1700920;
26278;1700635;
26266;1700426;
26241;1700277;
26235;1700186;
26225;1700136;
26229;1700145;
26229;1700171;
26241;1700237;
26246;1700347;
26270;1700473;
26264;1700604;
26298;1700766;
26302;1700914;
26324;1701057;
26330;1701174;
26346;1701298;
26354;1701385;
26360;1701461;
26363;1701520;
26364;1701558;
26376;1701572;
26373;1701590;
26371;1701601;
26379;1701603;
26375;1701608;
26378;1701618;
26373;1701624;
26384;1701661;
26374;1701671;
26379;1701710;
26387;1701729;
26404;1701781;
26386;1701828;
26400;1701904;
26408;1701971;
26415;1702023;
26419;1702077;
26437;1702131;
26435;1702184;
26436;1702246;
26447;1702286;
26453;1702354;
26455;1702392;
26471;1702448;
26470;1702490;
26472;1702546;
26467;1702559;
26487;1702581;
26482;1702563;
26492;1702591;
26487;1702599;
26495;1702637;
26492;1702664;
26507;1702722;
26498;1702748;
26512;1702694;
26483;1702527;
26475;1702257;
26431;1701917;
26413;1701518;
26352;1701092;
26336;1700690;
26285;1700326;
26266;1700056;
26239;1699839;
26228;1699708;
26218;1699623;
26219;1699597;
26213;1699605;
26214;1699659;
26223;1699718;
26231;1699827;
26238;1699950;
26260;1700112;
26273;1700243;
26284;1700405;
26300;1700507;
26312;1700621;
26317;1700712;
26329;1700790;
26331;1700830;
26336;1700893;
26332;1700911;
26342;1700937;
26346;1700932;
26342;1700961;
26340;1700939;
26344;1700939;
26339;1700936;
26351;1700957;
26337;1700971;
26350;1700981;
26348;1700995;
26363;1701037;
26365;1701094;
26366;1701150;
26374;1701226;
26388;1701309;
26388;1701391;
26406;1701460;
26400;1701507;
26426;1701581;
26418;1701630;
26435;1701698;
26431;1701748;
26445;1701821;
26440;1701891;
26451;1701960;
26454;1702044;
26466;1702129;
26465;1702190;
26478;1702274;
26490;1702342;
26487;1702394;
26496;1702438;
26505;1702478;
26502;1702516;
26513;1702550;
26511;1702527;
26504;1702369;
26463;1702106;
26437;1701766;
26402;1701371;
26367;1700970;
26318;1700554;
26302;1700190;
26258;1699838;
26231;1699542;
26209;1699288;
26186;1699087;
26177;1698928;
26163;1698817;
26154;1698754;
26155;1698700;
26155;1698684;
26157;1698666;
26152;1698673;
26157;1698702;
26151;1698765;
26172;1698853;
26186;1698961;
26186;1699088;
26194;1699167;
26211;1699223;
26208;1699252;
26201;1699267;
26203;1699257;
26201;1699219;
26196;1699190;
26190;1699149;
26201;1699176;
26188;1699207;
26194;1699289;
26201;1699360;
26211;1699450;
26218;1699530;
26230;1699628;
26233;1699721;
26258;1699801;
26260;1699882;
26268;1699949;
26269;1700053;
26288;1700129;
26288;1700202;
26297;1700281;
26307;1700368;
26325;1700452;
26324;1700550;
26340;1700650;
26337;1700721;
26347;1700812;
26358;1700877;
26367;1700948;
26366;1701012;
26382;1701070;
26392;1701125;
26400;1701205;
26402;1701263;
26420;1701339;
26415;1701409;
26424;1701478;
26437;1701554;
26446;1701576;
26430;1701482;
26417;1701278;
26384;1701005;
26361;1700686;
26325;1700354;
26298;1700007;
26260;1699664;
26232;1699385;
26203;1699130;
26193;1698956;
26174;1698824;
26158;1698753;
26145;1698694;
26146;1698709;
26152;1698755;
26165;1698856;
26170;1698971;
26183;1699115;
26199;1699270;
26216;1699440;
26231;1699574;
26237;1699732;
26254;1699844;
26267;1699981;
26274;1700056;
26279;1700144;
26275;1700190;
26283;1700244;
26288;1700288;
26293;1700352;
26297;1700421;
26309;1700495;
26306;1700561;
26324;1700643;
26326;1700728;
26347;1700807;
26338;1700868;
26354;1700926;
26347;1700979;
26371;1701030;
26353;1701066;
26380;1701129;
26364;1701200;
26384;1701280;
26385;1701360;
26392;1701457;
26407;1701549;
26415;1701654;
26418;1701733;
26427;1701846;
26431;1701946;
26440;1702033;
26445;1702130;
26465;1702207;
26463;1702277;
26478;1702364;
26473;1702432;
26492;1702515;
26501;1702589;
26502;1702685;
26515;1702745;
26519;1702837;
26521;1702900;
26533;1703008;
26540;1703039;
26525;1702975;
26508;1702809;
26485;1702568;
26457;1702274;
26428;1701946;
26395;1701599;
26365;1701284;
26331;1701004;
26318;1700771;
26299;1700607;
26298;1700485;
26281;1700415;
26282;1700395;
26279;1700405;
26306;1700468;
26292;1700569;
26321;1700693;
26310;1700822;
26344;1700970;
26348;1701112;
26365;1701261;
26365;1701390;
26380;1701510;
26389;1701613;
26396;1701686;
26403;1701758;
26419;1701827;
26414;1701877;
26417;1701921;
26417;1701949;
26414;1701965;
26417;1701995;
26430;1702034;
26433;1702093;
26439;1702182;
26445;1702268;
26454;1702381;
26473;1702497;
26472;1702611;
26480;1702712;
26497;1702823;
26499;1702943;
26508;1703031;
26510;1703114;
26520;1703214;
26543;1703328;
26547;1703453;
26564;1703604;
26583;1703760;
26593;1703913;
26608;1704063;
26629;1704214;
26636;1704356;
26646;1704511;
26673;1704672;
26686;1704857;
26705;1705029;
26708;1705215;
26731;1705427;
26754;1705690;
26785;1705958;
26799;1706203;
26813;1706304;
26810;1706237;
26783;1706027;
26755;1705737;
26718;1705415;
26692;1705164;
26672;1704967;
26655;1704831;
26652;1704720;
26641;1704657;
26637;1704626;
26648;1704657;
26648;1704716;
26662;1704831;
26676;1704962;
26692;1705104;
26702;1705231;
26715;1705351;
26720;1705462;
26738;1705578;
26745;1705702;
26762;1705839;
26763;1705959;
26787;1706077;
26790;1706153;
26808;1706224;
26803;1706246;
26824;1706294;
26820;1706326;
26826;1706344;
26828;1706379;
26836;1706419;
26840;1706418;
26841;1706432;
26842;1706435;
26853;1706462;
26846;1706480;
26856;1706474;
26851;1706452;
26851;1706445;
26840;1706427;
26851;1706413;
26831;1706409;
26847;1706414;
26845;1706435;
26850;1706463;
26842;1706524;
26851;1706585;
26853;1706627;
26869;1706677;
26858;1706705;
26870;1706774;
26875;1706827;
26889;1706901;
26894;1706960;
26899;1707042;
26907;1707106;
26924;1707197;
26927;1707259;
26930;1707337;
26926;1707287;
26919;1707106;
26880;1706789;
26857;1706429;
26821;1706067;
26802;1705727;
26774;1705394;
26757;1705076;
26734;1704791;
26726;1704544;
26701;1704299;
26701;1704126;
26670;1703983;
26688;1703865;
26670;1703779;
26681;1703737;
26665;1703688;
26683;1703692;
26677;1703692;
26681;1703725;
26678;1703780;
26689;1703829;
26686;1703892;
26700;1703954;
26699;1703986;
26703;1704014;
26702;1704023;
26707;1704052;
26707;1704038;
26709;1704036;
26694;1704054;
26710;1704077;
26707;1704083;
26718;1704114;
26713;1704122;
26721;1704161;
26723;1704177;
26735;1704233;
26733;1704257;
26745;1704315;
26752;1704375;
26759;1704436;
26754;1704493;
26766;1704556;
26761;1704634;
26781;1704680;
26768;1704734;
26785;1704782;
26789;1704842;
26806;1704901;
26799;1704942;
26810;1704992;
26807;1705047;
26828;1705104;
26822;1705159;
26842;1705211;
26839;1705282;
26857;1705342;
26847;1705389;
26857;1705421;
26835;1705392;
26847;1705264;
26810;1705051;
26783;1704743;
26741;1704393;
26710;1704041;
26678;1703659;
26648;1703295;
26606;1702982;
26585;1702735;
26571;1702547;
26554;1702412;
26541;1702321;
26539;1702266;
26540;1702241;
26542;1702248;
26540;1702266;
26539;1702302;
26549;1702344;
26556;1702426;
26554;1702517;
26574;1702647;
26576;1702775;
26588;1702885;
26603;1702997;
26605;1703087;
26620;1703174;
26625;1703255;
26634;1703325;
26638;1703351;
26633;1703378;
26634;1703366;
26634;1703356;
26640;1703342;
26634;1703322;
26638;1703325;
26638;1703351;
26649;1703376;
26634;1703406;
26649;1703435;
26652;1703482;
26653;1703530;
26653;1703562;
26655;1703609;
26660;1703659;
26662;1703713;
26680;1703767;
26683;1703822;
26680;1703885;
26685;1703942;
26694;1703994;
26704;1704062;
26713;1704140;
26715;1704207;
26726;1704289;
26728;1704375;
26737;1704456;
26748;1704533;
26757;1704609;
26761;1704686;
26771;1704757;
26769;1704809;
26771;1704760;
26754;1704610;
26735;1704384;
26706;1704072;
26679;1703718;
26638;1703312;
26607;1702916;
26564;1702522;
26542;1702193;
26507;1701936;
26500;1701739;
26482;1701572;
26468;1701473;
26464;1701425;
26452;1701384;
26458;1701385;
26460;1701400;
26464;1701453;
26465;1701510;
26472;1701556;
26483;1701639;
26481;1701711;
26493;1701786;
26494;1701865;
26504;1701962;
26503;1702046;
26518;1702136;
26524;1702212;
26538;1702284;
26541;1702349;
26547;1702418;
26553;1702444;
26563;1702510;
26563;1702539;
26569;1702609;
26575;1702651;
26588;1702736;
26593;1702796;
26602;1702885;
26601;1702963;
26609;1703047;
26618;1703134;
26631;1703207;
26630;1703275;
26650;1703347;
26647;1703407;
26650;1703488;
26651;1703550;
26672;1703629;
26673;1703720;
26688;1703786;
26690;1703850;
26713;1703931;
26701;1703998;
26715;1704060;
26712;1704119;
26740;1704211;
26737;1704308;
26749;1704399;
26759;1704471;
26766;1704556;
26769;1704640;
26775;1704741;
26782;1704826;
26795;1704935;
26794;1705018;
26800;1705081;
26798;1704979;
26776;1704791;
26747;1704526;
26724;1704207;
26694;1703873;
26659;1703510;
26624;1703146;
26595;1702811;
26568;1702518;
26543;1702295;
26515;1702113;
26514;1701993;
26497;1701885;
26497;1701850;
26481;1701803;
26492;1701809;
26481;1701798;
26481;1701809;
26471;1701832;
26482;1701877;
26495;1701953;
26504;1702011;
26501;1702098;
26524;1702154;
26518;1702200;
26523;1702220;
26523;1702226;
26533;1702249;
26526;1702255;
26537;1702270;
26533;1702264;
26537;1702284;
26528;1702295;
26530;1702315;
26535;1702313;
26532;1702329;
26535;1702343;
26532;1702354;
26533;1702387;
26528;1702421;
26539;1702464;
26542;1702502;
26545;1702531;
26557;1702577;
26554;1702604;
26561;1702631;
26564;1702654;
26561;1702695;
26571;1702717;
26580;1702776;
26574;1702812;
26583;1702879;
26587;1702917;
26593;1702972;
26594;1703025;
26597;1703076;
26605;1703118;
26613;1703153;
26612;1703211;
26620;1703243;
26626;1703325;
26623;1703378;
26635;1703442;
26643;1703494;
26645;1703539;
26652;1703571;
26648;1703607;
26661;1703655;
26662;1703708;
26675;1703756;
26672;1703794;
26664;1703814;
26664;1703742;
26640;1703544;
26615;1703277;
26586;1702918;
26546;1702534;
26498;1702093;
26474;1701698;
26436;1701297;
26404;1700985;
26370;1700707;
26356;1700533;
26344;1700408;
26341;1700346;
26341;1700313;
26344;1700338;
26342;1700376;
26347;1700447;
26354;1700522;
26369;1700634;
26371;1700746;
26389;1700874;
26393;1701013;
26415;1701147;
26417;1701257;
26435;1701356;
26443;1701439;
26452;1701512;
26460;1701569;
26458;1701623;
26457;1701665;
26472;1701717;
26470;1701740;
26476;1701786;
26486;1701810;
26482;1701832;
26474;1701835;
26480;1701853;
26480;1701892;
26487;1701934;
26486;1701989;
26502;1702054;
26506;1702117;
26500;1702195;
26502;1702242;
26518;1702316;
26514;1702376;
26527;1702455;
26526;1702523;
26543;1702602;
26548;1702676;
26560;1702769;
26566;1702828;
26577;1702904;
26582;1702975;
26596;1703063;
26605;1703138;
26600;1703224;
26613;1703286;
26619;1703398;
26620;1703461;
26636;1703570;
26633;1703621;
26645;1703704;
26645;1703784;
26660;1703856;
26659;1703918;
26671;1703955;
26666;1703909;
26650;1703763;
26622;1703512;
26613;1703221;
26567;1702836;
26541;1702416;
26490;1701981;
26457;1701576;
26411;1701177;
26388;1700870;
26360;1700630;
26352;1700472;
26331;1700357;
26323;1700303;
26323;1700257;
26319;1700256;
26321;1700269;
26325;1700336;
26329;1700405;
26329;1700498;
26334;1700576;
26350;1700667;
26356;1700763;
26364;1700880;
26376;1700965;
26389;1701049;
26385;1701125;
26401;1701196;
26407;1701246;
26404;1701289;
26407;1701287;
26412;1701317;
26397;1701318;
26409;1701357;
26391;1701388;
26409;1701426;
26403;1701461;
26413;1701507;
26415;1701583;
26426;1701640;
26424;1701711;
26441;1701774;
