19192;869679;
24588;1435519;
24586;1435772;
24581;1435745;
24575;1435729;
24571;1435706;
24560;1435694;
24558;1435691;
24557;1435684;
24554;1435687;
24551;1435678;
24554;1435689;
24542;1435690;
24551;1435691;
24549;1435662;
24541;1435671;
24549;1435630;
24540;1435664;
24547;1435662;
24548;1435679;
24548;1435700;
24556;1435706;
24561;1435711;
24550;1435691;
24548;1435665;
24539;1435611;
24527;1435592;
24528;1435565;
24526;1435561;
24530;1435566;
24518;1435562;
24530;1435572;
24517;1435556;
24526;1435553;
24520;1435520;
24523;1435505;
24515;1435461;
24514;1435467;
24505;1435460;
24523;1435466;
24511;1435441;
24512;1435395;
24503;1435252;
24492;1435018;
24470;1434738;
24454;1434495;
24442;1434334;
24436;1434234;
24434;1434177;
24435;1434176;
24441;1434179;
24432;1434206;
24432;1434227;
24445;1434282;
24439;1434313;
24452;1434387;
24455;1434453;
24477;1434549;
24479;1434625;
24500;1434739;
24505;1434835;
24515;1434944;
24527;1435040;
24543;1435148;
24556;1435232;
24564;1435316;
24561;1435365;
24572;1435400;
24577;1435414;
24571;1435438;
24564;1435429;
24577;1435441;
24567;1435432;
24574;1435436;
24561;1435413;
24575;1435401;
24558;1435382;
24560;1435363;
24552;1435340;
24557;1435325;
24548;1435309;
24553;1435321;
24544;1435320;
24562;1435317;
24548;1435309;
24557;1435315;
24549;1435321;
24554;1435333;
24543;1435359;
24564;1435374;
24552;1435383;
24569;1435429;
24557;1435446;
24565;1435446;
24556;1435449;
24560;1435477;
24552;1435464;
24552;1435473;
24551;1435451;
24555;1435449;
24541;1435415;
24547;1435394;
24539;1435349;
24541;1435329;
24526;1435310;
24533;1435287;
24525;1435278;
24532;1435286;
24525;1435270;
24530;1435288;
24526;1435285;
24530;1435301;
24535;1435312;
24545;1435337;
24538;1435348;
24544;1435367;
24542;1435385;
24541;1435382;
24540;1435405;
24548;1435419;
24546;1435441;
24555;1435446;
24545;1435356;
24536;1435167;
24515;1434882;
24506;1434624;
24482;1434445;
24480;1434334;
24464;1434271;
24477;1434232;
24459;1434187;
24472;1434173;
24459;1434154;
24461;1434165;
24463;1434184;
24466;1434214;
24472;1434262;
24470;1434303;
24474;1434339;
24481;1434389;
24489;1434439;
24495;1434511;
24506;1434575;
24511;1434638;
24514;1434675;
24520;1434719;
24519;1434751;
24525;1434792;
24531;1434831;
24532;1434866;
24524;1434885;
24535;1434894;
24528;1434884;
24530;1434897;
24526;1434905;
24531;1434922;
24525;1434927;
24533;1434949;
24544;1434974;
24547;1434986;
24545;1435001;
24550;1435006;
24544;1435037;
24547;1435062;
24549;1435111;
24554;1435167;
24555;1435223;
24574;1435293;
24566;1435353;
24588;1435403;
24572;1435430;
24584;1435463;
24584;1435485;
24588;1435500;
24582;1435511;
24587;1435517;
24584;1435557;
24584;1435565;
24589;1435601;
24579;1435602;
24592;1435626;
24578;1435638;
24588;1435677;
24589;1435677;
24587;1435706;
24595;1435717;
24598;1435737;
24597;1435753;
24608;1435778;
24603;1435794;
24609;1435807;
24607;1435822;
24607;1435839;
24609;1435859;
24606;1435886;
24611;1435898;
24614;1435904;
24603;1435922;
24617;1435904;
24608;1435892;
24610;1435892;
24601;1435879;
24613;1435903;
24607;1435891;
24613;1435882;
24590;1435762;
24582;1435547;
24560;1435259;
24543;1434984;
24524;1434769;
24518;1434656;
24510;1434576;
24508;1434520;
24505;1434496;
24506;1434474;
24502;1434461;
24503;1434471;
24503;1434490;
24509;1434525;
24500;1434573;
24510;1434624;
24501;1434660;
24515;1434720;
24512;1434747;
24511;1434781;
24510;1434785;
24510;1434794;
24501;1434772;
24502;1434756;
24489;1434707;
24488;1434659;
24482;1434603;
24474;1434556;
24474;1434517;
24466;1434487;
24466;1434465;
24461;1434457;
24458;1434432;
24465;1434452;
24457;1434433;
24465;1434460;
24465;1434468;
24479;1434499;
24473;1434515;
24481;1434543;
24469;1434552;
24481;1434568;
24478;1434596;
24484;1434611;
24481;1434626;
24497;1434657;
24486;1434683;
24505;1434707;
24487;1434740;
24502;1434773;
24495;1434799;
24507;1434831;
24500;1434862;
24510;1434895;
24508;1434920;
24508;1434955;
24504;1434982;
24518;1435016;
24512;1435060;
24523;1435109;
24524;1435147;
24536;1435194;
24537;1435214;
24537;1435237;
24539;1435248;
24538;1435273;
24541;1435285;
24547;1435303;
24547;1435323;
24550;1435378;
24555;1435403;
24556;1435454;
24560;1435476;
24569;1435526;
24561;1435542;
24570;1435573;
24562;1435596;
24574;1435608;
24565;1435610;
24575;1435620;
24567;1435628;
24573;1435626;
24564;1435594;
24559;1435474;
24535;1435256;
24522;1434981;
24507;1434704;
24491;1434536;
24479;1434424;
24483;1434348;
24467;1434302;
24473;1434293;
24465;1434258;
24470;1434260;
24466;1434265;
24469;1434283;
24466;1434321;
24480;1434368;
24474;1434417;
24473;1434461;
24485;1434496;
24484;1434531;
24488;1434579;
24488;1434639;
24493;1434678;
24501;1434746;
24502;1434780;
24511;1434808;
24503;1434828;
24512;1434836;
24507;1434863;
24512;1434867;
24504;1434880;
24510;1434888;
24507;1434887;
24498;1434894;
24510;1434904;
24512;1434897;
24503;1434889;
24507;1434890;
24513;1434891;
24508;1434888;
24507;1434913;
24510;1434911;
24510;1434936;
24509;1434949;
24512;1434990;
24519;1435012;
24517;1435058;
24527;1435080;
24530;1435114;
24527;1435129;
24529;1435148;
24537;1435165;
24528;1435182;
24537;1435190;
24527;1435212;
24524;1435236;
24538;1435262;
24523;1435290;
24531;1435308;
24534;1435316;
24536;1435334;
24534;1435348;
24538;1435383;
24539;1435376;
24547;1435396;
24543;1435379;
24539;1435391;
24543;1435390;
24550;1435407;
24553;1435432;
24556;1435479;
24555;1435522;
24557;1435578;
24561;1435603;
24570;1435636;
24563;1435633;
24558;1435625;
24562;1435632;
24565;1435620;
24556;1435614;
24552;1435541;
24533;1435357;
24524;1435140;
24501;1434851;
24488;1434598;
24472;1434438;
24473;1434348;
24470;1434283;
24464;1434249;
24468;1434257;
24463;1434254;
24476;1434251;
24469;1434268;
24476;1434284;
24470;1434318;
24466;1434348;
24477;1434375;
24466;1434415;
24484;1434453;
24470;1434492;
24479;1434542;
24479;1434600;
24487;1434702;
24490;1434762;
24500;1434843;
24505;1434886;
24507;1434919;
24506;1434928;
24508;1434957;
24509;1434954;
24504;1434961;
24505;1434949;
24498;1434945;
24497;1434937;
24499;1434928;
24491;1434917;
24495;1434935;
24487;1434923;
24498;1434933;
24487;1434924;
24490;1434932;
24486;1434938;
24493;1434952;
24486;1434951;
24502;1434975;
24493;1435008;
24502;1435027;
24499;1435073;
24507;1435104;
24505;1435128;
24520;1435157;
24515;1435201;
24527;1435222;
24520;1435242;
24535;1435291;
24523;1435316;
24534;1435329;
24530;1435326;
24529;1435351;
24523;1435340;
24526;1435330;
24519;1435317;
24522;1435340;
24519;1435352;
24515;1435377;
24520;1435391;
24528;1435432;
24524;1435445;
24531;1435477;
24529;1435503;
24543;1435514;
24531;1435519;
24541;1435536;
24536;1435526;
24537;1435550;
24537;1435549;
24547;1435574;
24532;1435552;
24533;1435468;
24511;1435278;
24496;1435061;
24479;1434808;
24466;1434572;
24453;1434448;
24457;1434370;
24446;1434324;
24448;1434286;
24443;1434274;
24451;1434278;
24435;1434289;
24443;1434312;
24442;1434336;
24450;1434367;
24441;1434402;
24449;1434421;
24441;1434448;
24455;1434485;
24443;1434539;
24452;1434587;
24444;1434614;
24446;1434647;
24444;1434669;
24447;1434697;
24446;1434711;
24435;1434723;
24438;1434722;
24443;1434740;
24439;1434748;
24444;1434759;
24442;1434760;
24446;1434777;
24448;1434803;
24455;1434833;
24451;1434856;
24457;1434887;
24461;1434907;
24467;1434940;
24457;1434951;
24466;1434958;
24459;1434973;
24464;1434992;
24457;1434989;
24458;1435000;
24464;1435016;
24465;1435017;
24468;1435072;
24471;1435098;
24475;1435137;
24486;1435176;
24490;1435209;
24494;1435248;
24492;1435270;
24489;1435280;
24490;1435289;
24497;1435296;
24501;1435313;
24506;1435331;
24498;1435342;
24510;1435355;
24498;1435377;
24508;1435372;
24503;1435391;
24505;1435401;
24513;1435416;
24509;1435432;
24502;1435432;
24503;1435462;
24506;1435476;
24506;1435488;
24516;1435512;
24507;1435526;
24517;1435550;
24519;1435548;
24521;1435541;
24513;1435470;
24499;1435358;
24489;1435195;
24473;1434998;
24459;1434807;
24451;1434637;
24430;1434518;
24428;1434443;
24421;1434395;
24419;1434386;
24420;1434381;
24425;1434405;
24423;1434432;
24442;1434476;
24426;1434519;
24438;1434566;
24435;1434614;
24446;1434672;
24434;1434709;
24449;1434743;
24443;1434781;
24454;1434811;
24446;1434822;
24446;1434834;
24446;1434841;
24440;1434832;
24437;1434822;
24441;1434830;
24436;1434813;
24442;1434815;
24439;1434811;
24434;1434811;
24428;1434797;
24432;1434794;
24426;1434793;
24429;1434804;
24434;1434806;
24437;1434828;
24437;1434838;
24438;1434848;
24444;1434852;
24445;1434874;
24442;1434876;
24442;1434898;
24445;1434893;
24439;1434907;
24445;1434887;
24450;1434892;
24437;1434882;
24444;1434899;
24442;1434906;
24449;1434934;
24445;1434942;
24448;1434988;
24449;1435001;
24459;1435008;
24445;1435026;
24464;1435053;
24462;1435049;
24466;1435071;
24454;1435091;
24469;1435108;
24460;1435126;
24475;1435152;
24469;1435177;
24482;1435212;
24467;1435202;
24478;1435207;
24467;1435202;
24471;1435203;
24463;1435205;
24464;1435202;
24462;1435196;
24460;1435162;
24446;1435037;
24431;1434865;
24408;1434634;
24400;1434419;
24393;1434242;
24377;1434144;
24384;1434077;
24370;1433999;
24371;1433944;
24362;1433893;
24360;1433856;
24359;1433843;
24358;1433826;
24358;1433837;
24356;1433850;
24365;1433891;
24352;1433913;
24375;1433939;
24360;1433965;
24373;1433994;
24364;1434028;
24379;1434067;
24366;1434101;
24375;1434117;
24368;1434119;
24375;1434127;
24378;1434132;
24381;1434135;
24381;1434141;
24381;1434142;
24373;1434149;
24369;1434144;
24375;1434145;
24384;1434148;
24371;1434157;
24384;1434163;
24378;1434181;
24384;1434207;
24376;1434218;
24387;1434243;
24383;1434264;
24383;1434304;
24382;1434312;
24376;1434339;
24383;1434354;
24377;1434378;
24387;1434394;
24379;1434425;
24396;1434450;
24399;1434490;
24404;1434529;
24404;1434569;
24403;1434599;
24407;1434605;
24401;1434611;
24411;1434625;
24393;1434636;
24407;1434644;
24406;1434654;
24405;1434670;
24402;1434684;
24409;1434712;
24407;1434734;
24411;1434746;
24412;1434760;
24416;1434774;
24419;1434799;
24416;1434813;
24417;1434829;
24424;1434827;
24418;1434865;
24436;1434855;
24420;1434820;
24416;1434678;
24404;1434480;
24382;1434218;
24370;1433983;
24361;1433832;
24353;1433700;
24350;1433602;
24339;1433520;
24326;1433450;
24318;1433389;
24319;1433350;
24315;1433313;
24300;1433272;
24308;1433262;
24301;1433242;
24304;1433243;
24304;1433222;
24304;1433213;
24304;1433202;
24302;1433223;
24303;1433245;
24310;1433255;
24302;1433265;
24307;1433291;
24303;1433294;
24303;1433295;
24311;1433309;
24310;1433304;
24301;1433317;
24311;1433321;
24309;1433345;
24324;1433378;
24311;1433387;
24330;1433420;
24315;1433423;
24328;1433436;
24323;1433439;
24322;1433443;
24319;1433437;
24324;1433454;
24323;1433459;
24325;1433471;
24324;1433493;
24329;1433530;
24324;1433553;
24338;1433580;
24335;1433597;
24333;1433638;
24340;1433670;
24347;1433714;
24345;1433756;
24351;1433784;
24341;1433819;
24350;1433873;
24338;1433878;
24349;1433924;
24345;1433934;
24357;1433968;
24356;1433987;
24362;1434026;
24360;1434056;
24372;1434113;
24374;1434147;
24381;1434201;
24377;1434226;
24388;1434267;
24391;1434287;
24396;1434324;
24389;1434316;
24396;1434282;
24370;1434134;
24362;1433929;
24335;1433642;
24334;1433439;
24310;1433237;
24308;1433090;
24289;1432926;
24293;1432792;
24276;1432690;
24285;1432599;
24264;1432522;
24276;1432471;
24254;1432459;
24259;1432445;
24256;1432429;
24265;1432459;
24256;1432475;
24270;1432504;
24266;1432546;
24276;1432578;
24269;1432602;
24277;1432647;
24269;1432656;
24266;1432674;
24264;1432659;
24265;1432653;
24260;1432636;
24255;1432653;
24253;1432626;
24253;1432639;
24253;1432643;
24253;1432654;
24255;1432662;
24255;1432675;
24261;1432664;
24268;1432683;
24258;1432692;
24266;1432694;
24260;1432703;
24268;1432731;
24261;1432727;
24260;1432742;
24268;1432730;
24264;1432761;
24262;1432766;
24279;1432802;
24273;1432829;
24272;1432842;
24277;1432887;
24284;1432922;
24280;1432955;
24290;1432990;
24287;1433025;
24296;1433024;
24294;1433057;
24303;1433081;
24294;1433094;
24302;1433125;
24299;1433146;
24317;1433177;
24310;1433206;
24316;1433215;
24298;1433229;
24310;1433240;
24311;1433224;
24300;1433163;
24293;1433007;
24279;1432831;
24262;1432650;
24246;1432456;
24236;1432259;
24218;1432055;
24207;1431862;
24193;1431698;
24186;1431567;
24178;1431469;
24171;1431396;
24168;1431354;
24163;1431336;
24171;1431313;
24158;1431311;
24169;1431314;
24153;1431314;
24168;1431352;
24165;1431381;
24165;1431441;
24167;1431512;
24182;1431599;
24181;1431679;
24187;1431757;
24179;1431819;
24196;1431846;
24193;1431881;
24192;1431909;
24197;1431945;
24205;1431989;
24205;1432032;
24213;1432067;
24208;1432110;
24225;1432142;
24213;1432172;
24227;1432197;
24205;1432217;
24228;1432255;
24220;1432289;
24233;1432338;
24224;1432381;
24227;1432437;
24240;1432518;
24238;1432600;
24245;1432671;
24239;1432738;
24252;1432804;
24254;1432868;
24255;1432961;
24255;1433012;
24262;1433086;
24271;1433127;
24268;1433199;
24285;1433260;
24284;1433310;
24286;1433368;
24289;1433403;
24288;1433447;
24295;1433485;
24291;1433517;
24295;1433552;
24294;1433548;
24296;1433496;
24271;1433329;
24266;1433087;
24230;1432773;
24223;1432531;
24208;1432334;
24206;1432193;
24185;1432058;
24177;1431959;
24164;1431875;
24172;1431829;
24161;1431795;
24161;1431779;
24158;1431760;
24158;1431765;
24171;1431775;
24154;1431796;
24153;1431824;
24156;1431837;
24158;1431871;
24166;1431922;
24161;1431980;
24166;1432021;
24169;1432079;
24176;1432132;
24162;1432162;
24167;1432195;
24172;1432210;
24185;1432258;
24183;1432299;
24185;1432347;
24186;1432384;
24203;1432458;
24206;1432467;
24210;1432522;
24218;1432552;
24215;1432611;
24216;1432645;
24222;1432711;
24217;1432745;
24227;1432789;
24223;1432827;
24240;1432868;
24233;1432901;
24241;1432938;
24237;1432987;
24246;1433029;
24237;1433063;
24253;1433108;
24251;1433152;
24258;1433220;
24258;1433271;
24267;1433309;
24265;1433353;
24277;1433388;
24276;1433442;
24288;1433481;
24282;1433524;
24306;1433564;
24291;1433586;
24295;1433623;
24296;1433649;
24302;1433681;
24290;1433667;
24299;1433605;
24277;1433426;
24267;1433199;
24231;1432898;
24220;1432638;
24200;1432418;
24191;1432297;
24177;1432184;
24185;1432109;
24182;1432055;
24177;1432034;
24182;1432015;
24174;1432011;
24174;1432022;
24181;1432029;
24173;1432023;
24184;1432053;
24179;1432055;
24184;1432084;
24178;1432097;
24187;1432138;
24186;1432182;
24200;1432230;
24196;1432273;
24207;1432323;
24207;1432375;
24219;1432435;
24214;1432495;
24221;1432547;
24226;1432605;
24233;1432661;
24244;1432721;
24246;1432785;
24247;1432828;
24259;1432883;
24262;1432936;
24270;1433003;
24266;1433060;
24275;1433114;
24266;1433157;
24285;1433217;
24278;1433264;
24280;1433312;
24292;1433349;
24293;1433388;
24301;1433431;
24292;1433462;
24301;1433492;
24299;1433514;
24317;1433539;
24311;1433572;
24318;1433600;
24321;1433629;
24321;1433675;
24338;1433716;
24337;1433746;
24347;1433783;
24343;1433790;
24351;1433813;
24351;1433813;
24346;1433826;
24344;1433829;
24356;1433833;
24345;1433846;
24352;1433848;
24350;1433867;
24353;1433845;
24341;1433863;
24353;1433859;
24351;1433869;
24343;1433815;
24339;1433726;
24325;1433531;
24301;1433296;
24279;1433035;
24256;1432783;
24243;1432572;
24237;1432452;
24232;1432378;
24224;1432316;
24223;1432274;
24213;1432243;
24213;1432225;
24211;1432216;
24205;1432200;
24199;1432198;
24188;1432193;
24191;1432204;
24185;1432210;
24188;1432225;
24178;1432227;
24188;1432266;
24186;1432285;
24190;1432291;
24191;1432303;
24195;1432319;
24201;1432337;
24191;1432382;
24204;1432418;
24209;1432436;
24209;1432464;
24218;1432476;
24208;1432484;
24220;1432500;
24210;1432512;
24216;1432536;
24210;1432549;
24222;1432576;
24217;1432594;
24218;1432626;
24221;1432632;
24235;1432677;
24222;1432699;
24236;1432746;
24233;1432766;
24240;1432809;
24246;1432838;
24241;1432878;
24250;1432904;
24245;1432941;
24252;1432987;
24251;1433009;
24254;1433024;
24263;1433056;
24257;1433062;
24263;1433093;
24259;1433115;
24266;1433136;
24252;1433152;
24265;1433187;
24255;1433218;
24274;1433259;
24258;1433269;
24277;1433316;
24283;1433322;
24283;1433347;
24283;1433367;
24288;1433388;
24284;1433416;
24302;1433447;
24303;1433451;
24298;1433482;
24306;1433495;
24304;1433526;
24303;1433540;
24305;1433578;
24303;1433596;
24326;1433624;
24301;1433627;
24317;1433663;
24312;1433673;
24337;1433700;
24315;1433719;
24335;1433747;
24335;1433771;
24345;1433822;
24339;1433846;
24352;1433883;
24346;1433896;
24356;1433900;
24348;1433911;
24351;1433919;
24346;1433920;
24354;1433930;
24344;1433913;
24346;1433852;
24328;1433696;
24306;1433454;
24277;1433135;
24268;1432831;
24228;1432600;
24225;1432457;
24202;1432319;
24205;1432224;
24191;1432124;
24181;1432048;
24174;1431977;
24172;1431934;
24171;1431893;
24170;1431884;
24169;1431880;
24180;1431900;
24176;1431919;
24184;1431958;
24182;1431997;
24188;1432048;
24183;1432087;
24197;1432156;
24198;1432206;
24206;1432271;
24196;1432321;
24214;1432378;
24206;1432427;
24224;1432484;
24220;1432527;
24225;1432560;
24231;1432601;
24234;1432628;
24231;1432670;
24233;1432707;
24233;1432739;
24252;1432787;
24241;1432825;
24256;1432875;
24253;1432918;
24269;1432971;
24263;1433023;
24271;1433079;
24272;1433107;
24279;1433136;
24272;1433158;
24276;1433179;
24273;1433180;
24275;1433202;
24284;1433223;
24269;1433253;
24276;1433292;
24282;1433310;
24281;1433336;
24292;1433362;
24286;1433376;
24289;1433383;
24293;1433402;
24300;1433434;
24299;1433452;
24297;1433467;
24286;1433485;
24302;1433515;
24299;1433534;
24304;1433563;
24294;1433570;
24302;1433591;
24298;1433612;
24302;1433618;
24307;1433633;
24309;1433643;
24308;1433673;
24318;1433666;
24311;1433691;
24312;1433694;
24316;1433730;
24315;1433735;
24315;1433769;
24323;1433789;
24327;1433828;
24330;1433844;
24332;1433865;
24340;1433882;
24336;1433893;
24339;1433916;
24333;1433925;
24337;1433941;
24336;1433942;
24328;1433936;
24329;1433923;
24318;1433817;
24312;1433666;
24285;1433408;
24270;1433139;
24242;1432892;
24232;1432716;
24216;1432600;
24219;1432517;
24220;1432460;
24211;1432420;
24208;1432403;
24209;1432391;
24206;1432385;
24207;1432405;
24210;1432425;
24205;1432422;
24206;1432456;
24208;1432485;
24209;1432524;
24224;1432569;
24207;1432623;
24219;1432680;
24218;1432724;
24242;1432797;
24229;1432839;
24246;1432894;
24230;1432935;
24245;1432969;
24236;1433002;
24256;1433048;
24254;1433070;
24260;1433098;
24263;1433120;
24269;1433134;
24267;1433150;
24263;1433172;
24264;1433193;
24268;1433215;
24266;1433247;
24274;1433268;
24265;1433299;
24279;1433322;
24274;1433350;
24282;1433374;
24273;1433384;
24283;1433423;
24280;1433431;
24282;1433474;
24285;1433483;
24292;1433519;
24296;1433522;
24296;1433537;
24299;1433525;
24296;1433548;
24294;1433529;
24295;1433550;
24293;1433546;
24301;1433578;
24296;1433567;
24303;1433609;
24296;1433632;
24309;1433661;
24303;1433665;
24314;1433706;
24309;1433709;
24315;1433739;
24303;1433750;
24322;1433752;
24312;1433769;
24319;1433809;
24315;1433822;
24335;1433823;
24327;1433850;
24336;1433859;
24327;1433875;
24336;1433890;
24331;1433902;
24339;1433923;
24325;1433911;
24333;1433891;
24313;1433790;
24301;1433595;
24279;1433321;
24260;1433051;
24237;1432801;
24222;1432660;
24209;1432553;
24207;1432501;
24202;1432457;
24207;1432449;
24206;1432437;
24206;1432450;
24205;1432447;
24221;1432464;
24217;1432508;
24223;1432534;
24224;1432564;
24229;1432614;
24233;1432638;
24232;1432696;
24236;1432727;
24240;1432783;
24231;1432809;
24248;1432855;
24245;1432885;
24250;1432907;
24250;1432936;
24253;1432943;
24256;1432970;
24262;1432994;
24256;1433003;
24264;1433031;
24262;1433047;
24265;1433051;
24266;1433064;
24272;1433072;
24267;1433097;
24281;1433101;
24264;1433133;
24280;1433153;
24273;1433184;
24289;1433222;
24279;1433240;
24286;1433290;
24285;1433320;
24283;1433347;
24289;1433368;
24290;1433413;
24295;1433426;
24287;1433475;
24301;1433512;
24304;1433538;
24304;1433587;
24309;1433630;
24319;1433652;
24321;1433705;
24331;1433740;
24337;1433791;
24331;1433819;
24338;1433854;
24331;1433884;
24343;1433900;
24337;1433917;
24356;1433942;
24339;1433949;
24341;1433952;
24339;1433945;
24340;1433952;
24340;1433971;
24342;1433957;
24342;1433903;
24331;1433738;
24301;1433509;
24282;1433213;
24254;1432936;
24232;1432710;
24226;1432573;
24214;1432470;
24203;1432371;
24203;1432290;
24192;1432229;
24190;1432202;
24185;1432163;
24190;1432173;
24187;1432171;
24182;1432171;
24185;1432197;
24189;1432205;
24189;1432225;
24174;1432225;
24186;1432256;
24176;1432275;
24189;1432320;
24187;1432346;
24194;1432383;
24194;1432406;
24203;1432449;
24201;1432461;
24213;1432484;
24198;1432502;
24208;1432529;
24208;1432538;
24212;1432568;
24220;1432574;
24222;1432602;
24218;1432617;
24216;1432641;
24222;1432673;
24226;1432703;
24218;1432720;
24229;1432744;
24222;1432765;
24238;1432789;
24227;1432818;
24240;1432844;
24237;1432851;
24249;1432896;
24246;1432937;
24259;1432984;
24262;1433013;
24262;1433064;
24264;1433107;
24266;1433137;
24270;1433183;
24280;1433218;
24280;1433257;
24280;1433299;
24287;1433333;
24293;1433371;
24292;1433422;
24299;1433458;
24303;1433490;
24316;1433524;
24299;1433540;
24315;1433570;
24296;1433585;
24316;1433618;
24316;1433637;
24322;1433669;
24317;1433649;
24304;1433538;
24296;1433318;
24271;1433064;
24248;1432795;
24233;1432589;
24217;1432436;
24207;1432320;
24199;1432209;
24190;1432143;
24185;1432071;
24185;1432030;
24164;1431985;
24173;1431971;
24168;1431962;
24174;1431972;
24176;1431966;
24176;1431981;
24172;1431975;
24179;1432001;
24170;1432025;
24177;1432052;
24174;1432094;
24181;1432117;
24177;1432175;
24194;1432212;
24190;1432241;
24202;1432280;
24200;1432317;
24208;1432335;
24198;1432352;
24210;1432377;
24199;1432395;
24206;1432410;
24199;1432421;
24207;1432447;
24202;1432478;
24213;1432511;
24206;1432525;
24206;1432557;
24205;1432569;
24210;1432598;
24210;1432622;
24216;1432639;
24218;1432671;
24222;1432715;
24226;1432733;
24229;1432781;
24233;1432804;
24234;1432841;
24239;1432865;
24237;1432915;
24241;1432922;
24242;1432964;
24239;1432984;
24251;1433017;
24240;1433042;
24248;1433082;
24250;1433111;
24259;1433134;
24258;1433171;
24268;1433210;
24269;1433239;
24276;1433265;
24272;1433291;
24281;1433324;
24273;1433351;
24282;1433365;
24281;1433364;
24286;1433366;
24279;1433369;
24292;1433396;
24279;1433400;
24291;1433353;
24256;1433185;
24254;1432926;
24217;1432610;
24193;1432362;
24172;1432160;
24155;1431998;
24135;1431857;
24120;1431731;
24119;1431634;
24107;1431562;
24097;1431495;
24101;1431446;
24094;1431400;
24097;1431402;
24099;1431383;
24091;1431407;
24096;1431416;
24111;1431432;
24105;1431477;
24104;1431503;
24112;1431547;
24119;1431594;
24106;1431616;
24122;1431671;
24116;1431714;
24126;1431758;
24120;1431798;
24129;1431853;
24132;1431891;
24144;1431919;
24141;1431956;
24143;1431994;
24150;1432022;
24149;1432050;
24154;1432067;
24154;1432082;
24156;1432134;
24160;1432160;
24163;1432202;
24166;1432232;
24169;1432283;
24178;1432313;
24170;1432336;
24187;1432397;
24184;1432432;
24188;1432482;
24190;1432507;
24189;1432525;
24194;1432557;
24193;1432589;
24202;1432622;
24188;1432632;
24196;1432655;
24192;1432668;
24205;1432718;
24201;1432734;
24215;1432772;
24212;1432800;
24220;1432844;
24229;1432889;
24225;1432922;
24231;1432953;
24233;1432964;
24240;1433009;
24243;1433045;
24241;1433066;
24242;1433108;
24249;1433151;
24249;1433180;
24247;1433212;
24256;1433251;
24250;1433273;
24263;1433303;
24259;1433325;
24270;1433339;
24260;1433346;
24270;1433357;
24260;1433355;
24277;1433380;
24269;1433349;
24260;1433255;
24239;1433045;
24219;1432763;
24188;1432447;
24169;1432221;
24156;1432029;
24136;1431894;
24129;1431753;
24117;1431665;
24107;1431562;
24095;1431487;
24088;1431427;
24093;1431400;
24074;1431363;
24080;1431359;
24080;1431339;
24083;1431351;
24074;1431355;
24083;1431377;
24073;1431388;
24086;1431447;
24082;1431478;
24094;1431523;
24086;1431548;
24104;1431598;
24098;1431621;
24101;1431657;
24105;1431687;
24107;1431723;
24114;1431733;
24121;1431784;
24114;1431790;
24118;1431826;
24116;1431826;
24126;1431854;
24116;1431873;
24131;1431883;
24131;1431911;
24141;1431950;
24128;1431981;
24151;1432014;
24132;1432044;
24147;1432071;
24146;1432090;
24152;1432125;
24152;1432159;
24163;1432189;
24160;1432233;
24170;1432256;
24166;1432303;
24180;1432325;
24166;1432352;
24174;1432384;
24171;1432401;
24179;1432441;
24174;1432463;
24182;1432512;
24185;1432540;
24189;1432594;
24188;1432631;
24193;1432684;
24195;1432714;
24198;1432756;
24207;1432795;
24208;1432842;
24217;1432875;
24212;1432917;
24223;1432941;
24234;1432990;
24224;1433031;
24230;1433060;
24235;1433088;
24239;1433113;
24239;1433134;
24244;1433159;
24236;1433128;
24233;1433020;
24204;1432812;
24189;1432545;
24166;1432266;
24154;1432073;
24132;1431916;
24127;1431783;
24118;1431697;
24116;1431626;
24103;1431569;
24106;1431536;
24096;1431521;
24109;1431512;
24096;1431519;
24102;1431538;
24103;1431563;
24118;1431611;
24115;1431653;
24124;1431712;
24124;1431764;
24136;1431819;
24129;1431883;
24139;1431942;
24137;1431979;
24146;1432008;
24144;1432033;
24140;1432076;
24144;1432099;
24141;1432132;
24157;1432160;
24160;1432174;
24152;1432189;
24157;1432215;
24158;1432227;
24161;1432234;
24171;1432267;
24163;1432292;
24165;1432313;
24171;1432344;
24172;1432375;
24180;1432401;
24175;1432437;
24185;1432477;
24187;1432499;
24189;1432554;
24183;1432576;
24192;1432598;
24191;1432632;
24198;1432665;
24198;1432693;
24203;1432713;
24211;1432733;
24209;1432747;
24208;1432776;
24207;1432786;
24210;1432806;
24216;1432829;
24221;1432846;
24221;1432879;
24218;1432908;
24226;1432942;
24222;1432978;
24241;1433015;
24232;1433046;
24243;1433069;
24249;1433106;
24256;1433147;
24251;1433186;
24247;1433182;
24242;1433111;
24218;1432936;
24219;1432693;
24175;1432409;
24167;1432173;
24142;1431995;
24143;1431865;
24127;1431763;
24123;1431690;
24119;1431642;
24114;1431610;
24116;1431594;
24119;1431602;
24118;1431623;
24120;1431633;
24129;1431660;
24126;1431673;
24126;1431697;
24132;1431735;
24128;1431772;
24129;1431821;
24133;1431880;
24146;1431931;
24136;1431972;
24159;1432023;
24149;1432040;
24159;1432093;
24158;1432105;
24163;1432144;
24167;1432152;
24169;1432197;
24176;1432213;
24171;1432240;
24178;1432263;
24178;1432286;
24185;1432305;
24189;1432326;
24185;1432350;
24182;1432383;
24184;1432426;
24200;1432449;
24193;1432488;
24203;1432531;
24193;1432569;
24205;1432640;
24199;1432659;
24209;1432702;
24206;1432732;
24209;1432769;
24209;1432794;
24214;1432841;
24215;1432869;
24227;1432907;
24223;1432944;
24228;1432979;
24241;1433003;
24238;1433052;
24241;1433084;
24242;1433133;
24259;1433151;
24255;1433205;
24264;1433210;
24263;1433237;
24254;1433240;
24259;1433268;
24257;1433262;
24268;1433285;
24252;1433292;
24271;1433265;
24240;1433134;
24233;1432895;
24206;1432596;
24186;1432305;
24155;1432087;
24152;1431919;
24134;1431783;
24133;1431684;
24117;1431572;
24117;1431515;
24102;1431456;
24105;1431407;
24094;1431370;
24105;1431341;
24092;1431326;
24093;1431316;
24084;1431304;
24083;1431312;
24092;1431325;
24094;1431348;
24090;1431356;
24092;1431393;
24090;1431406;
24087;1431430;
24088;1431429;
24098;1431442;
24097;1431435;
24100;1431452;
24101;1431434;
24106;1431443;
24111;1431432;
24108;1431424;
24104;1431418;
24109;1431411;
24106;1431418;
24118;1431447;
24108;1431461;
24125;1431500;
24123;1431503;
24125;1431542;
24116;1431544;
24126;1431553;
24122;1431549;
24128;1431557;
24125;1431573;
24132;1431583;
24130;1431608;
24139;1431638;
24139;1431660;
24145;1431699;
24149;1431741;
24153;1431782;
24151;1431804;
24161;1431854;
24154;1431894;
24168;1431943;
24164;1431962;
24172;1431991;
24164;1432002;
24170;1432034;
24164;1432066;
24164;1432117;
24173;1432145;
24174;1432219;
24180;1432275;
24177;1432351;
24187;1432425;
24196;1432490;
24201;1432524;
24211;1432579;
24206;1432586;
24213;1432609;
24215;1432622;
24221;1432612;
24204;1432510;
24195;1432306;
24162;1432039;
24149;1431791;
24122;1431570;
24113;1431391;
24092;1431211;
24084;1431074;
24072;1430920;
24058;1430800;
24043;1430694;
24032;1430623;
24030;1430562;
24030;1430506;
24018;1430479;
24019;1430447;
24023;1430442;
24014;1430430;
24021;1430423;
24023;1430446;
24019;1430478;
24022;1430492;
24026;1430528;
24028;1430565;
24032;1430612;
24045;1430646;
24036;1430688;
24048;1430736;
24043;1430777;
24055;1430831;
24057;1430880;
24059;1430917;
24054;1430947;
24058;1430981;
24071;1431005;
24062;1431011;
24069;1431054;
24064;1431069;
24066;1431074;
24059;1431103;
24072;1431136;
24064;1431154;
24071;1431195;
24071;1431209;
24076;1431233;
24083;1431272;
24082;1431303;
24087;1431350;
24086;1431376;
24089;1431419;
24093;1431477;
24107;1431528;
24102;1431564;
24104;1431616;
24114;1431663;
24116;1431719;
24123;1431777;
24126;1431837;
24140;1431906;
24137;1431957;
24140;1432039;
24139;1432075;
24148;1432151;
24154;1432192;
24160;1432259;
24165;1432299;
24170;1432361;
24175;1432407;
24182;1432478;
24190;1432534;
24192;1432578;
24210;1432604;
24202;1432651;
24209;1432677;
24215;1432685;
24210;1432712;
24216;1432735;
24213;1432757;
24222;1432761;
24208;1432767;
24215;1432780;
24213;1432766;
24225;1432791;
24212;1432790;
24229;1432784;
24216;1432692;
24201;1432500;
24177;1432186;
24152;1431876;
24123;1431621;
24107;1431396;
24085;1431175;
24073;1430979;
24057;1430783;
24035;1430628;
24027;1430484;
24029;1430370;
24013;1430269;
24007;1430217;
23990;1430178;
24004;1430161;
23985;1430142;
23994;1430135;
23983;1430130;
24000;1430123;
23985;1430125;
23997;1430139;
23988;1430163;
23999;1430201;
23999;1430243;
24021;1430279;
24006;1430326;
24016;1430371;
24011;1430422;
24020;1430463;
24027;1430498;
24041;1430540;
24027;1430576;
24044;1430585;
24029;1430602;
24044;1430618;
24026;1430617;
24037;1430647;
24033;1430691;
24045;1430746;
24042;1430794;
24045;1430835;
24051;1430880;
24059;1430930;
24058;1430950;
24066;1430998;
24074;1431036;
24074;1431091;
24078;1431126;
24088;1431177;
24094;1431231;
24101;1431294;
24100;1431341;
24115;1431392;
24108;1431447;
24121;1431504;
24120;1431554;
24130;1431616;
24124;1431653;
24138;1431729;
24138;1431767;
24149;1431836;
24138;1431885;
24164;1431933;
24157;1431974;
24162;1432022;
24166;1432074;
24169;1432115;
24168;1432149;
